-0.15,-0.135,0.625,0.035,-0.02,-0.31,-0.79,-0.87,-0.61,-0.27,-0.18,-0.175,-0.08,-0.045,0.005,0.02,0.06,0.075,0.09,0.065,0.025,-0.06,-0.1,-0.145,-0.145,-0.155,-0.155,-0.175,-0.165,-0.205,-0.225,-0.235,-0.245,-0.26,-0.235,0.63,-0.035,-0.12,-0.4,-0.905,-0.895,-0.66,-0.33,-0.255,-0.2,-0.145,-0.105,-0.1,-0.05,-0.05,0,-0.005,0,-0.08,-0.125,-0.175,-0.19,-0.22,-0.23,-0.26,-0.265,-0.285,-0.295,-0.31,-0.305,-0.32,-0.315,-0.3,0.77,-0.08500000000000001,-0.145,-0.46,-0.995,-1.02,-0.63,-0.375,-0.29,-0.17,-0.08,-0.1,-0.05,-0.045,0.015,0.045,0.03,-0.05,-0.115,-0.205,-0.2,-0.255,-0.255,-0.27,-0.285,-0.315,-0.305,-0.33,-0.315,-0.34,-0.31,-0.3,0.66,-0.08,-0.1,-0.5649999999999999,-0.995,-0.95,-0.455,-0.3,-0.27,-0.17,-0.14,-0.105,-0.08,-0.05,-0.005,0.05,0.1,-0.005,-0.095,-0.135,-0.175,-0.19,-0.205,-0.2,-0.21,-0.24,-0.255,-0.245,-0.26,-0.26,-0.275,-0.24,0.095,-0.045,-0.215,-0.765,-1.005,-0.705,-0.37,-0.295,-0.21,-0.16,-0.12,-0.08500000000000001,-0.055,-0.005,0.035,0.045,0,-0.065,-0.135,-0.16,-0.195,-0.2,-0.185,-0.155,-0.235,-0.275,-0.295,-0.29,-0.29,-0.285,-0.235,0.525,1.375,-0.145,-0.425,-0.425,-0.455,-0.49,-0.535,-0.55,-0.585,-0.57,-0.555,-0.455,-0.345,-0.27,-0.25,-0.245,-0.275,-0.28,-0.305,-0.305,-0.305,-0.285,-0.29,-0.28,-0.285,-0.29,-0.25,-0.225,-0.245,-0.27,0.17,0.02,-0.03,-0.175,-0.615,-0.66,-0.36,-0.42,-0.29,-0.205,-0.18,-0.16,-0.135,-0.09,-0.08,-0.045,-0.01,0.01,-0.025,-0.08500000000000001,-0.13,-0.18,-0.205,-0.22,-0.235,-0.24,-0.25,-0.24,-0.26,-0.25,-0.275,-0.285,-0.285,-0.27,-0.265,0.77,-0.04,-0.06,-0.6,-1.065,-0.99,-0.605,-0.375,-0.325,-0.23,-0.14,-0.105,-0.075,-0.05,-0.02,-0.01,0,-0.025,-0.07000000000000001,-0.135,-0.18,-0.21,-0.21,-0.21,-0.205,-0.23,-0.24,-0.255,-0.27,-0.285,-0.29,-0.29,-0.285,0.65,-0.04,-0.095,-0.57,-1.02,-0.975,-0.505,-0.255,-0.27,-0.195,-0.15,-0.13,-0.12,-0.075,-0.06,-0.005,0.005,-0.015,-0.095,-0.15,-0.215,-0.235,-0.265,-0.275,-0.31,-0.31,-0.35,-0.35,-0.375,-0.37,-0.39,-0.365,-0.155,-0.035,-0.145,-0.335,-0.83,-1.07,-0.9399999999999999,-0.5,-0.385,-0.33,-0.265,-0.23,-0.18,-0.11,-0.09,-0.095,-0.07000000000000001,-0.045,-0.09,-0.145,-0.23,-0.255,-0.285,-0.285,-0.335,-0.325,-0.36,-0.36,-0.385,-0.38,-0.38,-0.37,-0.32,-0.06,-0.145,-0.28,-0.745,-1.07,-0.985,-0.535,-0.39,-0.33,-0.255,-0.195,-0.18,-0.125,-0.105,-0.045,-0.03,0.005,-0.02,-0.11,-0.205,-0.24,-0.26,-0.255,-0.285,-0.3,-0.32,-0.32,-0.35,-0.345,-0.345,-0.34,-0.33,0.655,-0.12,-0.21,-0.595,-1.065,-1.045,-0.625,-0.39,-0.33,-0.235,-0.175,-0.13,-0.095,-0.05,-0.025,0.015,0.01,-0.075,-0.155,-0.23,-0.25,-0.275,-0.235,-0.21,-0.26,-0.3,-0.305,-0.325,-0.32,-0.305,-0.27,-0.04,0.965,0.68,-0.455,-0.425,-0.43,-0.45,-0.49,-0.54,-0.5600000000000001,-0.6,-0.585,-0.5600000000000001,-0.445,-0.345,-0.255,-0.245,-0.23,-0.265,-0.245,-0.275,-0.245,-0.24,-0.225,-0.24,-0.225,-0.23,-0.215,-0.195,-0.13,-0.215,-0.155,0.1,0.065,-0.005,-0.285,-0.39,-0.335,-0.395,-0.29,-0.235,-0.21,-0.205,-0.175,-0.16,-0.12,-0.095,-0.04,-0.03,-0.03,-0.095,-0.12,-0.155,-0.17,-0.185,-0.18,-0.185,-0.195,-0.21,-0.2,-0.225,-0.23,-0.24,-0.25,-0.255,-0.18,0.035,0.05,-0.035,-0.415,-0.9,-0.895,-0.5600000000000001,-0.3,-0.255,-0.17,-0.11,-0.05,-0.03,0.035,0.04,0.08500000000000001,0.07000000000000001,0.035,-0.055,-0.12,-0.155,-0.175,-0.19,-0.18,-0.195,-0.185,-0.19,-0.205,-0.225,-0.225,-0.24,-0.24,-0.21,-0.12,0.09,-0.005,-0.185,-0.66,-0.955,-0.78,-0.39,-0.24,-0.23,-0.095,-0.08,-0.015,-0.015,0.015,0.015,0.05,0.045,-0.005,-0.095,-0.12,-0.185,-0.185,-0.19,-0.2,-0.225,-0.23,-0.23,-0.24,-0.245,-0.24,-0.27,-0.235,-0.13,0.075,-0.005,-0.15,-0.755,-0.975,-0.745,-0.37,-0.305,-0.175,-0.095,0,-0.04,-0.005,0.025,0.065,0.09,0.1,0.03,-0.005,-0.07000000000000001,-0.075,-0.095,-0.09,-0.115,-0.115,-0.155,-0.145,-0.19,-0.18,-0.205,-0.185,-0.175,0.6899999999999999,0.08,-0.05,-0.615,-0.88,-0.65,-0.24,-0.185,-0.09,-0.035,0.005,0.01,0.07000000000000001,0.09,0.155,0.195,0.255,0.12,0.025,-0.05,-0.06,-0.095,-0.095,-0.13,-0.125,-0.15,-0.155,-0.19,-0.185,-0.195,-0.18,-0.145,0.07000000000000001,0.025,-0.115,-0.625,-0.915,-0.765,-0.34,-0.235,-0.18,-0.095,-0.04,-0.02,0.02,0.035,0.08,0.095,0.12,0.055,-0.015,-0.105,-0.115,-0.115,-0.07000000000000001,-0.15,-0.18,-0.2,-0.21,-0.225,-0.215,-0.225,-0.205,0.415,1.435,-0.34,-0.285,-0.35,-0.37,-0.445,-0.455,-0.53,-0.52,-0.535,-0.47,-0.395,-0.29,-0.23,-0.19,-0.22,-0.225,-0.25,-0.275,-0.27,-0.23,-0.27,-0.25,-0.265,-0.25,-0.265,-0.235,-0.22,-0.25,-0.28,-0.22,0.545,0.06,0.53,0.71,-0.555,-0.425,-0.46,-0.44,-0.48,-0.48,-0.51,-0.465,-0.445,-0.385,-0.3,-0.195,-0.19,-0.165,-0.205,-0.205,-0.24,-0.24,-0.275,-0.25,-0.25,-0.205,-0.24,-0.22,-0.235,-0.225,-0.255,-0.19,0.045,0.195,0.045,-0.05,-0.545,-0.855,-0.845,-0.45,-0.295,-0.22,-0.165,-0.055,-0.05,0,0.005,0.055,0.055,0.08,0.045,0.025,-0.08500000000000001,-0.115,-0.17,-0.16,-0.205,-0.18,-0.21,-0.185,-0.21,-0.205,-0.255,-0.23,-0.255,-0.235,-0.21,0.035,-0.025,-0.115,-0.585,-0.9,-0.885,-0.48,-0.33,-0.265,-0.22,-0.14,-0.13,-0.08,-0.075,-0.045,-0.045,-0.01,-0.02,-0.035,-0.125,-0.155,-0.2,-0.19,-0.225,-0.235,-0.265,-0.255,-0.305,-0.3,-0.325,-0.29,-0.3,0.12,-0.04,-0.07000000000000001,-0.3,-0.8149999999999999,-1.055,-0.855,-0.47,-0.295,-0.25,-0.105,-0.145,-0.115,-0.12,-0.06,-0.045,0,-0.05,-0.06,-0.16,-0.19,-0.245,-0.255,-0.285,-0.29,-0.325,-0.315,-0.35,-0.355,-0.39,-0.36,-0.37,-0.365,0.06,-0.09,-0.17,-0.34,-0.915,-1.145,-0.99,-0.57,-0.445,-0.385,-0.31,-0.26,-0.235,-0.18,-0.13,0.005,-0.06,-0.11,-0.185,-0.22,-0.265,-0.25,-0.27,-0.26,-0.315,-0.31,-0.34,-0.345,-0.36,-0.37,-0.415,-0.36,-0.29,-0.075,-0.115,-0.24,-0.75,-0.96,-0.825,-0.465,-0.375,-0.31,-0.25,-0.235,-0.235,-0.155,-0.12,-0.105,-0.13,-0.145,-0.235,-0.245,-0.305,-0.28,-0.245,-0.275,-0.365,-0.36,-0.405,-0.465,-0.455,-0.395,-0.47,-0.37,0.45,0.765,-0.525,-0.555,-0.595,-0.6,-0.7,-0.6850000000000001,-0.775,-0.785,-0.795,-0.66,-0.595,-0.525,-0.49,-0.48,-0.51,-0.51,-0.515,-0.485,-0.52,-0.47,-0.5,-0.505,-0.495,-0.43,-0.405,-0.445,-0.47,-0.415,-0.445,-0.375,0.305,0.045,0.855,-0.33,-0.57,-0.52,-0.555,-0.595,-0.595,-0.57,-0.62,-0.595,-0.58,-0.5,-0.44,-0.385,-0.4,-0.41,-0.4,-0.485,-0.515,-0.495,-0.505,-0.475,-0.525,-0.515,-0.505,-0.505,-0.545,-0.505,-0.42,0.49,-0.22,-0.14,-0.38,-0.925,-1.1,-0.765,-0.535,-0.38,-0.135,-0.545,-0.37,-0.39,-0.255,-0.025,-0.09,-0.24,-0.31,-0.42,-0.47,-0.295,-0.4,-0.21,-0.4,-0.405,-0.37,-0.32,-0.215,-0.38,-0.25,-0.445,-0.535,-0.455,-0.215,-0.495,-0.05,-0.13,-0.3,-0.635,-0.64,-0.6899999999999999,-0.265,-0.205,0.025,0.035,-0.13,0.095,0.015,0.165,0.17,0.17,0.155,0.17,0.035,0.2,0.08,0.05,0.04,0.08,0.08,0.07000000000000001,0.05,0.065,0.09,0.125,0.12,0.125,0.12,1.22,0.405,0.375,0.015,-0.365,-0.35,0.095,0.205,0.29,0.4,0.425,0.41,0.45,0.455,0.485,0.51,0.515,0.47,0.425,0.375,0.345,0.295,0.3,0.26,0.255,0.205,0.185,0.175,0.175,0.145,0.175,0.15,0.195,0.385,0.34,0.13,-0.31,-0.595,-0.485,-0.055,0.115,0.11,0.205,0.245,0.27,0.285,0.305,0.335,0.375,0.405,0.325,0.23,0.19,0.12,0.115,0.06,0.055,0.025,0.035,-0.005,-0.005,-0.055,-0.045,-0.095,-0.045,0.525,0.125,0.035,-0.425,-0.845,-0.76,-0.39,-0.175,-0.12,-0.02,0.015,0.055,0.045,0.075,0.075,0.105,0.125,0.1,0.035,-0.01,-0.075,-0.09,-0.11,-0.08500000000000001,-0.13,-0.175,-0.2,-0.195,-0.225,-0.21,-0.21,-0.18,0.155,0.9,0.505,-0.325,-0.32,-0.335,-0.385,-0.4,-0.465,-0.49,-0.55,-0.535,-0.53,-0.455,-0.39,-0.285,-0.27,-0.25,-0.27,-0.255,-0.29,-0.265,-0.275,-0.26,-0.28,-0.26,-0.285,-0.295,-0.26,-0.23,-0.275,-0.26,-0.04,-0.055,-0.145,-0.52,-0.64,-0.37,-0.47,-0.28,-0.245,-0.22,-0.23,-0.215,-0.15,-0.11,-0.11,-0.08,-0.135,-0.17,-0.25,-0.255,-0.29,-0.3,-0.345,-0.275,-0.3,-0.32,-0.34,-0.325,-0.335,-0.295,-0.3,-0.07000000000000001,-0.12,-0.205,-0.775,-1.025,-0.88,-0.435,-0.305,-0.295,-0.165,-0.11,-0.105,-0.095,-0.09,-0.055,-0.045,-0.055,-0.105,-0.165,-0.2,-0.17,-0.22,-0.23,-0.24,-0.235,-0.255,-0.305,-0.265,-0.295,-0.31,-0.28,-0.335,-0.28,0.18,-0.005,-0.015,-0.065,-0.5649999999999999,-0.915,-0.9350000000000001,-0.55,-0.37,-0.27,-0.21,-0.175,-0.165,-0.135,-0.1,-0.095,-0.055,-0.035,-0.045,-0.07000000000000001,-0.14,-0.185,-0.225,-0.23,-0.25,-0.26,-0.3,-0.3,-0.33,-0.34,-0.35,-0.35,-0.375,-0.34,0.555,-0.12,-0.155,-0.325,-0.83,-1.025,-0.865,-0.495,-0.4,-0.325,-0.24,-0.17,-0.22,-0.195,-0.175,-0.145,-0.125,-0.095,-0.15,-0.205,-0.27,-0.265,-0.31,-0.305,-0.345,-0.36,-0.385,-0.375,-0.4,-0.405,-0.42,-0.42,-0.4,0.6850000000000001,-0.19,-0.245,-0.505,-1.03,-1.045,-0.71,-0.435,-0.39,-0.31,-0.255,-0.22,-0.19,-0.16,-0.12,-0.105,-0.065,-0.12,-0.135,-0.18,-0.21,-0.28,-0.295,-0.325,-0.35,-0.375,-0.375,-0.38,-0.385,-0.4,-0.385,-0.405,-0.305,0.57,0.535,-0.5,-0.47,-0.51,-0.52,-0.555,-0.57,-0.625,-0.64,-0.65,-0.6,-0.495,-0.425,-0.385,-0.35,-0.38,-0.37,-0.405,-0.395,-0.405,-0.405,-0.395,-0.375,-0.33,-0.275,-0.3,-0.335,-0.36,-0.345,-0.32,-0.29,1.08,1.255,-0.36,-0.41,-0.41,-0.44,-0.46,-0.485,-0.51,-0.52,-0.505,-0.5,-0.42,-0.365,-0.3,-0.255,-0.275,-0.28,-0.29,-0.315,-0.305,-0.3,-0.3,-0.305,-0.3,-0.31,-0.29,-0.315,-0.345,-0.285,-0.235,-0.26,0.375,-0.08,-0.145,-0.6,-0.89,-0.63,-0.34,-0.355,-0.28,-0.23,-0.2,-0.185,-0.16,-0.125,-0.13,-0.13,-0.135,-0.205,-0.255,-0.28,-0.29,-0.295,-0.29,-0.275,-0.315,-0.325,-0.335,-0.37,-0.385,-0.35,-0.355,0.74,-0.145,-0.175,-0.52,-0.95,-0.8100000000000001,-0.41,-0.345,-0.295,-0.205,-0.15,-0.135,-0.105,-0.095,-0.09,-0.045,-0.075,-0.11,-0.195,-0.23,-0.205,-0.25,-0.235,-0.26,-0.27,-0.26,-0.285,-0.3,-0.3,-0.295,-0.265,-0.27,0.82,-0.06,-0.125,-0.4,-0.9350000000000001,-0.9399999999999999,-0.62,-0.285,-0.165,-0.155,-0.105,-0.07000000000000001,-0.06,-0.02,0,0.03,0.055,0.09,0.08,0.035,-0.02,-0.08,-0.12,-0.15,-0.155,-0.185,-0.195,-0.21,-0.22,-0.23,-0.245,-0.25,-0.255,-0.255,-0.145,0.045,-0.045,-0.175,-0.695,-0.96,-0.78,-0.385,-0.245,-0.205,-0.095,-0.08,-0.05,0,0.065,0.06,0.045,0.065,0.07000000000000001,0.02,-0.03,-0.09,-0.105,-0.125,-0.16,-0.185,-0.195,-0.205,-0.24,-0.255,-0.255,-0.265,-0.27,-0.23,0.215,-0.04,-0.205,-0.735,-0.9399999999999999,-0.74,-0.37,-0.275,-0.23,-0.15,-0.125,-0.105,-0.055,-0.045,0,0.02,0.04,0.035,0.005,-0.09,-0.14,-0.175,-0.185,-0.22,-0.225,-0.25,-0.25,-0.27,-0.26,-0.29,-0.28,-0.285,-0.18,-0.01,-0.095,-0.255,-0.695,-0.9399999999999999,-0.83,-0.405,-0.265,-0.23,-0.12,-0.07000000000000001,-0.045,-0.01,0.04,0.075,0.12,0.105,0.055,-0.03,-0.06,-0.095,-0.12,-0.115,-0.1,-0.1,-0.16,-0.19,-0.19,-0.185,-0.215,-0.19,-0.1,0.22,0.885,0.585,-0.28,-0.27,-0.285,-0.27,-0.35,-0.31,-0.365,-0.36,-0.325,-0.345,-0.255,-0.19,-0.095,-0.06,-0.075,-0.08,-0.105,-0.1,-0.12,-0.125,-0.105,-0.105,-0.09,-0.11,-0.05,-0.055,-0.08,-0.115,-0.115,0.875,0.095,0.08,-0.08,-0.16,-0.245,-0.285,-0.195,-0.155,-0.15,-0.13,-0.145,-0.125,-0.115,-0.08500000000000001,-0.065,-0.075,-0.11,-0.165,-0.18,-0.215,-0.18,-0.205,-0.235,-0.215,-0.26,-0.27,-0.25,-0.23,-0.26,-0.265,0.5649999999999999,0,-0.17,-0.445,-0.885,-0.79,-0.38,-0.26,-0.24,-0.165,-0.09,-0.075,-0.045,-0.015,0.02,0,-0.06,-0.105,-0.14,-0.165,-0.185,-0.21,-0.19,-0.21,-0.23,-0.25,-0.26,-0.27,-0.255,-0.26,-0.25,0.825,-0.045,-0.12,-0.36,-0.835,-0.805,-0.435,-0.235,-0.205,-0.125,-0.025,-0.04,0.005,-0.005,0.05,0.075,0.07000000000000001,0.08,0.07000000000000001,0,-0.055,-0.095,-0.13,-0.145,-0.17,-0.165,-0.195,-0.22,-0.205,-0.245,-0.21,-0.21,-0.23,-0.21,-0.155,0.03,-0.04,-0.15,-0.605,-1.005,-0.885,-0.475,-0.245,-0.19,-0.04,0.04,0.03,0.035,0.06,0.08,0.135,0.16,0.1,0.05,-0.01,-0.065,-0.105,-0.13,-0.13,-0.17,-0.245,-0.23,-0.21,-0.22,-0.25,-0.235,-0.24,-0.24,-0.105,0,-0.07000000000000001,-0.28,-0.82,-0.9399999999999999,-0.645,-0.295,-0.215,-0.135,-0.145,-0.08500000000000001,-0.045,-0.06,0.035,0.045,0.14,0.01,-0.08500000000000001,-0.17,-0.145,-0.195,-0.2,-0.26,-0.25,-0.265,-0.31,-0.3,-0.32,-0.375,-0.31,-0.34,-0.3,0.15,-0.14,-0.275,-0.78,-1.035,-0.895,-0.455,-0.385,-0.345,-0.245,-0.185,-0.195,-0.18,-0.105,-0.105,-0.065,-0.07000000000000001,-0.08,-0.15,-0.21,-0.215,-0.215,-0.23,-0.31,-0.315,-0.35,-0.375,-0.415,-0.41,-0.395,-0.395,-0.3,0.665,0.22,-0.495,-0.5,-0.525,-0.52,-0.59,-0.62,-0.645,-0.65,-0.66,-0.6,-0.53,-0.455,-0.375,-0.33,-0.345,-0.375,-0.34,-0.335,-0.385,-0.36,-0.355,-0.34,-0.36,-0.32,-0.275,-0.275,-0.31,-0.295,-0.33,-0.25,0.15,0.405,1.095,-0.35,-0.37,-0.35,-0.395,-0.39,-0.38,-0.455,-0.435,-0.425,-0.4,-0.37,-0.31,-0.245,-0.2,-0.135,-0.225,-0.205,-0.205,-0.21,-0.245,-0.235,-0.235,-0.215,-0.22,-0.195,-0.19,-0.18,-0.16,-0.145,0.8100000000000001,0.075,0.11,-0.21,-0.77,-0.665,-0.29,-0.31,-0.205,-0.13,-0.08,-0.07000000000000001,-0.025,0.015,0.01,0.075,0.04,-0.03,-0.095,-0.14,-0.17,-0.195,-0.195,-0.17,-0.195,-0.19,-0.23,-0.19,-0.21,-0.23,-0.23,0.82,-0.03,-0.07000000000000001,-0.39,-0.83,-0.875,-0.45,-0.305,-0.245,-0.15,-0.115,-0.07000000000000001,-0.045,-0.04,-0.005,0.015,0.015,-0.03,-0.065,-0.125,-0.15,-0.16,-0.18,-0.205,-0.21,-0.225,-0.245,-0.28,-0.245,-0.285,-0.3,-0.3,-0.275,0.79,-0.075,-0.13,-0.315,-0.85,-0.96,-0.73,-0.355,-0.255,-0.18,-0.125,-0.105,-0.09,-0.065,-0.04,0.01,0.015,0.09,0.045,0.01,-0.065,-0.11,-0.13,-0.155,-0.185,-0.185,-0.205,-0.21,-0.24,-0.205,-0.235,-0.22,-0.24,-0.185,0.775,-0.005,-0.08,-0.3,-0.795,-0.89,-0.71,-0.31,-0.215,-0.145,-0.095,-0.055,0,0.07000000000000001,0.06,0.095,0.105,0.14,0.095,0.035,-0.025,-0.06,-0.095,-0.105,-0.15,-0.145,-0.165,-0.19,-0.21,-0.205,-0.21,-0.21,-0.205,0.295,-0.02,-0.065,-0.33,-0.875,-0.965,-0.66,-0.26,-0.15,-0.135,-0.045,-0.035,0.03,0.05,0.095,0.105,0.19,0.17,0.14,0,-0.03,-0.095,-0.11,-0.115,-0.12,-0.125,-0.16,-0.13,-0.125,-0.19,-0.165,-0.16,-0.13,0.09,0.07000000000000001,-0.03,-0.305,-0.93,-0.915,-0.515,-0.195,-0.125,-0.015,0,0.055,0.065,0.11,0.11,0.175,0.15,0.125,0.025,0,-0.06,-0.07000000000000001,-0.115,-0.1,-0.095,-0.045,-0.13,-0.165,-0.2,-0.175,-0.185,-0.125,0.09,0.41,1.285,-0.185,-0.285,-0.29,-0.335,-0.345,-0.4,-0.38,-0.44,-0.41,-0.41,-0.34,-0.255,-0.165,-0.155,-0.135,-0.14,-0.135,-0.145,-0.165,-0.135,-0.125,-0.12,-0.105,-0.145,-0.135,-0.12,-0.06,-0.06,-0.08500000000000001,0.01,0.16,0.08,-0.175,-0.455,-0.105,-0.255,-0.115,-0.03,-0.015,-0.01,0.045,0.045,0.08,0.1,0.11,0.095,0.045,-0.015,-0.035,-0.08500000000000001,-0.075,-0.1,-0.095,-0.11,-0.105,-0.125,-0.105,-0.125,-0.125,-0.17,0.1,0.09,0.015,-0.295,-0.825,-0.76,-0.3,-0.18,-0.105,-0.025,0.025,0.045,0.065,0.08500000000000001,0.12,0.09,0.075,0.005,-0.055,-0.115,-0.135,-0.13,-0.135,-0.175,-0.155,-0.195,-0.18,-0.21,-0.2,-0.23,-0.21,-0.195,0.215,-0.055,-0.16,-0.48,-0.885,-0.84,-0.425,-0.275,-0.205,-0.175,-0.1,-0.1,-0.07000000000000001,-0.065,-0.035,-0.01,0.02,0,-0.02,-0.095,-0.135,-0.185,-0.195,-0.215,-0.205,-0.255,-0.24,-0.275,-0.265,-0.3,-0.315,-0.32,-0.325,-0.32,-0.18,-0.105,-0.2,-0.42,-0.98,-1.01,-0.66,-0.38,-0.285,-0.22,-0.12,-0.14,-0.145,-0.13,-0.08500000000000001,-0.07000000000000001,-0.03,-0.07000000000000001,-0.11,-0.185,-0.215,-0.275,-0.285,-0.33,-0.325,-0.365,-0.36,-0.375,-0.385,-0.39,-0.395,-0.395,-0.385,-0.33,-0.14,-0.25,-0.465,-1.055,-1.06,-0.725,-0.43,-0.365,-0.285,-0.225,-0.215,-0.2,-0.16,-0.12,-0.035,0,-0.02,-0.095,-0.16,-0.215,-0.245,-0.32,-0.315,-0.325,-0.35,-0.4,-0.38,-0.42,-0.415,-0.44,-0.415,-0.41,0.485,-0.26,-0.315,-0.555,-1.04,-1.07,-0.695,-0.455,-0.36,-0.345,-0.25,-0.26,-0.23,-0.205,-0.14,-0.125,-0.08,-0.095,-0.125,-0.205,-0.18,-0.285,-0.29,-0.345,-0.325,-0.335,-0.34,-0.37,-0.36,-0.375,-0.145,0.77,-0.21,-0.63,-0.59,-0.63,-0.595,-0.66,-0.66,-0.675,-0.655,-0.675,-0.625,-0.57,-0.455,-0.385,-0.345,-0.36,-0.33,-0.38,-0.37,-0.37,-0.345,-0.35,-0.345,-0.335,-0.285,-0.26,-0.275,-0.325,-0.285,-0.3,-0.29,-0.285,0.16,1.35,-0.22,-0.36,-0.32,-0.38,-0.39,-0.435,-0.43,-0.465,-0.455,-0.465,-0.385,-0.35,-0.25,-0.235,-0.23,-0.245,-0.265,-0.295,-0.3,-0.315,-0.285,-0.31,-0.29,-0.32,-0.3,-0.285,-0.225,-0.295,-0.305,-0.31,-0.235,-0.1,-0.125,0.06,0.145,-0.55,-0.38,-0.39,-0.38,-0.415,-0.375,-0.38,-0.365,-0.37,-0.29,-0.29,-0.255,-0.27,-0.26,-0.3,-0.3,-0.325,-0.3,-0.32,-0.32,-0.355,-0.325,-0.345,-0.345,-0.375,-0.35,-0.24,-0.075,-0.185,-0.315,-0.845,-1,-0.765,-0.425,-0.335,-0.3,-0.21,-0.17,-0.16,-0.11,-0.115,-0.08500000000000001,-0.1,-0.1,-0.175,-0.235,-0.3,-0.31,-0.315,-0.335,-0.375,-0.335,-0.37,-0.355,-0.365,-0.38,-0.385,-0.385,-0.385,-0.35,-0.185,-0.12,-0.255,-0.35,-0.8,-0.95,-0.9399999999999999,-0.51,-0.425,-0.385,-0.29,-0.275,-0.26,-0.2,-0.215,-0.165,-0.205,-0.165,-0.195,-0.255,-0.275,-0.295,-0.34,-0.32,-0.32,-0.375,-0.405,-0.365,-0.425,-0.415,-0.42,-0.395,-0.405,-0.36,-0.11,-0.125,-0.285,-0.41,-0.91,-0.995,-0.78,-0.41,-0.345,-0.215,-0.175,-0.18,-0.175,-0.16,-0.095,-0.08,-0.07000000000000001,-0.08,-0.17,-0.22,-0.255,-0.255,-0.285,-0.305,-0.305,-0.31,-0.355,-0.375,-0.355,-0.355,-0.34,-0.375,-0.3,-0.08,-0.22,-0.385,-0.895,-1.03,-0.775,-0.41,-0.335,-0.29,-0.22,-0.21,-0.19,-0.12,-0.05,-0.075,-0.075,-0.065,-0.095,-0.22,-0.16,-0.215,-0.245,-0.255,-0.26,-0.29,-0.26,-0.275,-0.17,-0.3,-0.16,-0.285,-0.205,0.725,-0.02,-0.135,-0.455,-1.025,-0.755,-0.195,0.155,0.135,-0.14,-0.135,-0.07000000000000001,0.115,0.18,0.13,0.035,0.045,-0.155,-0.15,-0.365,-0.52,-0.205,-0.435,-0.395,-0.255,-0.29,-0.51,-0.46,-0.945,0.08,-0.43,0.215,0.53,-0.145,-0.55,-0.52,-0.175,0.005,-0.38,-0.215,-0.16,-0.57,-0.665,-0.525,-0.315,-0.26,0.045,-0.42,-0.1,-0.115,0.07000000000000001,-0.05,-0.47,-0.275,-0.27,-0.07000000000000001,-0.09,-0.38,0.225,0.095,-0.365,-0.22,-0.735,0.01,0.96,0.85,0.115,0.035,-0.065,-0.17,-0.285,-0.395,-0.375,0.03,0.09,-0.12,0.245,-0.21,0.25,-0.21,0.055,0.09,0.075,-0.17,-0.065,-0.205,-0.23,0.02,-0.075,-0.15,-0.195,0.125,-0.205,-0.135,-0.265,0.06,-0.095,-0.245,-0.39,-0.205,-0.495,-0.375,-0.345,-0.16,-0.22,-0.255,-0.26,-0.32,-0.18,-0.19,-0.225,-0.26,-0.34,-0.29,-0.28,-0.35,-0.36,-0.375,-0.375,-0.39,-0.365,-0.375,-0.365,-0.455,-0.505,-0.43,-0.535,-0.415,-0.065,-0.065,-0.345,-0.58,-0.945,-0.85,-0.62,-0.395,-0.175,-0.185,-0.2,-0.115,-0.245,-0.365,-0.33,-0.115,-0.135,-0.38,-0.21,-0.38,-0.305,-0.4,-0.3,0.015,-0.43,-0.425,-0.44,-0.43,-0.45,-0.525,-0.475,-0.385,-0.435,-0.3,-0.4,-0.495,-0.825,-1.01,-1.11,-0.76,-0.3,-0.4,-0.41,-0.27,-0.18,-0.18,-0.15,-0.135,-0.09,-0.01,-0.025,-0.055,-0.07000000000000001,-0.095,-0.17,-0.17,-0.195,-0.175,-0.2,-0.175,-0.22,-0.21,-0.22,-0.21,-0.23,-0.215,0.495,-0.01,-0.095,-0.26,-0.745,-0.945,-0.705,-0.36,-0.19,-0.195,-0.1,-0.06,0.075,0.01,0.01,0.045,0.05,0.045,0.03,-0.06,-0.115,-0.14,-0.15,-0.19,-0.18,-0.225,-0.22,-0.25,-0.255,-0.28,-0.275,-0.285,-0.275,-0.28,0.255,-0.095,-0.21,-0.61,-0.965,-0.945,-0.515,-0.335,-0.245,-0.16,-0.105,-0.095,-0.065,-0.025,0.005,0.045,0.055,0.035,-0.08,-0.145,-0.185,-0.185,-0.21,-0.225,-0.22,-0.245,-0.245,-0.265,-0.245,-0.265,-0.245,-0.255,0.855,-0.065,-0.19,-0.59,-0.905,-0.785,-0.33,-0.215,-0.15,-0.09,-0.065,-0.055,0,0.01,0.055,0.05,0.07000000000000001,-0.005,-0.055,-0.14,-0.14,-0.145,-0.125,-0.2,-0.22,-0.255,-0.27,-0.27,-0.265,-0.29,-0.27,-0.035,0.96,-0.075,-0.325,-0.325,-0.38,-0.42,-0.44,-0.5,-0.53,-0.54,-0.5,-0.45,-0.355,-0.275,-0.265,-0.265,-0.255,-0.275,-0.31,-0.32,-0.305,-0.315,-0.34,-0.32,-0.335,-0.315,-0.24,-0.26,-0.32,-0.305,-0.29,0.45,-0.07000000000000001,0.38,0.42,-0.5,-0.435,-0.45,-0.465,-0.49,-0.505,-0.51,-0.51,-0.495,-0.465,-0.41,-0.35,-0.33,-0.34,-0.34,-0.365,-0.37,-0.36,-0.375,-0.355,-0.37,-0.38,-0.365,-0.385,-0.38,-0.41,-0.41,-0.225,-0.035,-0.195,-0.405,-0.825,-1.055,-0.905,-0.535,-0.4,-0.38,-0.275,-0.22,-0.18,-0.165,-0.15,-0.125,-0.12,-0.12,-0.155,-0.21,-0.275,-0.32,-0.33,-0.365,-0.37,-0.37,-0.385,-0.4,-0.41,-0.43,-0.43,-0.43,-0.46,-0.445,-0.4,-0.185,-0.27,-0.45,-0.865,-1.09,-0.9350000000000001,-0.57,-0.45,-0.415,-0.325,-0.29,-0.275,-0.255,-0.245,-0.215,-0.175,-0.16,-0.165,-0.22,-0.285,-0.335,-0.36,-0.395,-0.405,-0.415,-0.45,-0.445,-0.47,-0.48,-0.485,-0.495,-0.475,-0.45,0.735,-0.265,-0.42,-0.885,-1.15,-1.015,-0.6,-0.435,-0.355,-0.22,-0.19,-0.215,-0.18,-0.14,-0.095,-0.045,-0.035,-0.075,-0.125,-0.18,-0.245,-0.275,-0.285,-0.295,-0.305,-0.305,-0.325,-0.335,-0.325,-0.345,-0.33,-0.335,-0.24,0.005,-0.08,-0.22,-0.72,-1.005,-0.91,-0.54,-0.325,-0.27,-0.16,-0.12,-0.08500000000000001,-0.05,0.01,0.06,0.035,0.065,0.045,-0.005,-0.075,-0.135,-0.11,-0.16,-0.145,-0.16,-0.195,-0.225,-0.225,-0.215,-0.18,-0.225,-0.22,0.61,-0.015,-0.115,-0.45,-0.86,-0.93,-0.575,-0.275,-0.195,-0.15,-0.08,-0.04,-0.055,-0.035,0.03,0.09,0.13,0.03,-0.045,-0.115,-0.14,-0.175,-0.19,-0.215,-0.245,-0.235,-0.27,-0.27,-0.305,-0.28,-0.29,-0.3,-0.235,-0.06,-0.135,-0.365,-0.765,-0.95,-0.77,-0.36,-0.26
