1,0.0842,-0.0283,-0.024,-0.0285,-0.0366,-0.0327,-0.0488,-0.0449,-0.04410,-0.03611,-0.0412,-0.03613,-0.0614,-0.01215,-0.00416,-0.04817,-0.0418,-0.03619,-0.04420,-0.06421,-0.0822,-0.09223,-0.124,-0.10825,-0.126,-0.09627,-0.09228,-0.0829,-0.07630,-0.07231,-0.06832,-0.07233,-0.06834,-0.06835,-0.06436,-0.0637,-0.05238,-0.04439,-0.04440,-0.04441,-0.0442,-0.04443,-0.04444,-0.04445,-0.04846,-0.04447,-0.04448,-0.04449,-0.0450,-0.03251,-0.03252,-0.02853,-0.02454,-0.02855,-0.02856,-0.02857,-0.02858,-0.03659,-0.02860,-0.03261,-0.02862,-0.0263,-0.02864,-0.0265,-0.01666,-0.01267,-0.01668,-0.01269,-0.01270,-0.01271,-0.01272,-0.01273,-0.01274,-0.01275,-0.01276,-0.01277,-0.00878,-0.00479,080,0.00881,0.01282,0.01683,0.01284,0.00485,0.00486,0.00487,0.00488,0.00489,0.00490,0.01291,0.01292,0.01293,0.01694,0.01295,0.01296,0.01697,0.01298,0.01299,0.012100,0.004101,0.012102,0.004103,0.004104,0.004105,0.004106,0.008107,0.008108,0.016109,0.012110,0.012111,0.008112,0.004113,0.004114,0.004115,0116,0117,0118,0.004119,-0.004120,-0.004121,-0.008122,-0.008123,-0.012124,-0.004125,-0.012126,-0.004127,-0.012128,-0.012129,-0.012130,-0.016131,-0.016132,-0.016133,-0.012134,-0.012135,-0.004136,-0.008137,-0.012138,-0.012139,-0.016140,-0.02141,-0.016142,-0.02143,-0.016144,-0.012145,-0.008146,-0.012147,-0.008148,-0.012149,-0.012150,-0.016151,-0.016152,-0.02153,-0.016154,-0.016155,-0.012156,-0.012157,-0.016158,-0.016159,-0.02160,-0.02161,-0.016162,-0.02163,-0.02164,-0.016165,-0.016166,-0.02167,-0.016168,-0.02169,-0.02170,-0.028171,-0.02172,-0.02173,-0.016174,-0.012175,-0.012176,-0.012177,-0.016178,-0.016179,-0.016180,-0.02181,-0.028182,-0.02183,-0.024184,-0.02185,-0.016186,-0.012187,-0.012188,-0.012189,-0.012190,-0.012191,-0.016192,-0.02193,-0.024194,-0.028195,-0.02196,-0.02197,-0.016198,-0.016199,-0.016200,-0.016201,-0.016202,-0.016203,-0.02204,-0.02205,-0.02206,-0.016207,-0.02208,-0.02209,-0.028210,-0.024211,-0.02212,-0.016213,-0.024214,-0.02215,-0.028216,-0.02217,-0.028218,-0.02219,-0.028220,-0.028221,-0.028222,-0.028223,-0.024224,-0.016225,-0.016226,-0.016227,-0.016228,-0.02229,-0.02230,-0.028231,-0.024232,-0.032233,-0.032234,-0.032235,-0.028236,-0.028237,-0.024238,-0.024239,-0.016240,-0.016241,-0.012242,-0.012243,-0.012244,-0.012245,-0.02246,-0.028247,-0.032248,-0.036249,-0.032250,-0.036251,-0.028252,-0.028253,-0.02254,-0.02255,-0.028256,-0.02257,-0.028258,-0.028259,-0.016260,-0.016261,-0.016262,-0.016263,-0.02264,-0.02265,-0.028266,-0.032267,-0.032268,-0.028269,-0.028270,-0.028271,-0.016272,-0.02273,-0.024274,-0.028275,-0.036276,-0.032277,-0.036278,-0.032279,-0.028280,-0.028281,-0.02282,-0.02283,-0.028284,-0.024285,-0.032286,-0.032287,-0.036288,-0.036289,-0.032290,-0.028291,-0.028292,-0.02293,-0.02294,-0.02295,-0.028296,-0.02297,-0.028298,-0.02299,-0.028300,-0.028301,-0.028302,-0.036303,-0.036304,-0.036305,-0.04306,-0.036307,-0.036308,-0.036309,-0.032310,-0.032311,-0.028312,-0.028313,-0.028314,-0.028315,-0.028316,-0.032317,-0.036318,-0.036319,-0.04320,-0.04321,-0.036322,-0.036323,-0.036324,-0.036325,-0.036326,-0.036327,-0.036328,-0.032329,-0.036330,-0.036331,-0.036332,-0.032333,-0.028334,-0.02335,-0.028336,-0.028337,-0.028338,-0.032339,-0.036340,-0.04341,-0.044342,-0.04343,-0.04344,-0.04345,-0.032346,-0.036347,-0.036348,-0.028349,-0.028350,-0.028351,-0.028352,-0.028353,-0.036354,-0.036355,-0.036356,-0.04357,-0.036358,-0.036359,-0.04360,-0.04361,-0.036362,-0.04363,-0.036364,-0.036365,-0.032366,-0.036367,-0.028368,-0.028369,-0.028370,-0.028371,-0.028372,-0.032373,-0.036374,-0.032375,-0.036376,-0.036377,-0.028378,-0.036379,-0.036380,-0.036381,-0.036382,-0.04383,-0.036384,-0.028385,-0.028386,-0.02387,-0.012388,-0.012389,-0.016390,-0.02391,-0.028392,-0.04393,-0.044394,-0.044395,-0.036396,-0.036397,-0.028398,-0.02399,-0.02400,-0.02401,-0.016402,-0.02403,-0.024404,-0.028405,-0.028406,-0.028407,-0.028408,-0.032409,-0.036410,-0.036411,-0.04412,-0.032413,-0.028414,-0.028415,-0.028416,-0.02417,-0.02418,-0.024419,-0.028420,-0.028421,-0.028422,-0.032423,-0.032424,-0.032425,-0.032426,-0.028427,-0.032428,-0.032429,-0.032430,-0.036431,-0.036432,-0.04433,-0.044434,-0.044435,-0.044436,-0.04437,-0.036438,-0.036439,-0.032440,-0.028441,-0.028442,-0.024443,-0.032444,-0.036445,-0.04446,-0.044447,-0.044448,-0.048449,-0.048450,-0.044451,-0.044452,-0.044453,-0.04454,-0.044455,-0.044456,-0.044457,-0.044458,-0.044459,-0.044460,-0.044461,-0.044462,-0.044463,-0.048464,-0.048465,-0.048466,-0.044467,-0.044468,-0.044469,-0.044470,-0.036471,-0.04472,-0.036473,-0.044474,-0.044475,-0.044476,-0.044477,-0.044478,-0.04479,-0.044480,-0.04481,-0.04482,-0.04483,-0.036484,-0.04485,-0.044486,-0.04487,-0.044488,-0.048489,-0.044490,-0.044491,-0.044492,-0.04493,-0.036494,-0.036495,-0.032496,-0.032497,-0.036498,-0.044499,-0.044500,-0.044501,-0.044502,-0.036503,-0.04504,-0.036505,-0.032506,-0.036507,-0.028508,-0.036509,-0.036510,-0.036511,-0.028512,-0.028513,-0.024514,-0.024515,-0.028516,-0.032517,-0.032518,-0.036519,-0.036520,-0.036521,-0.036522,-0.028523,-0.028524,-0.028525,-0.024526,-0.028527,-0.036528,-0.036529,-0.032530,-0.032531,-0.028532,-0.028533,-0.02534,-0.02535,-0.028536,-0.028537,-0.036538,-0.04539,-0.036540,-0.036541,-0.036542,-0.032543,-0.032544,-0.028545,-0.028546,-0.028547,-0.02548,-0.028549,-0.028550,-0.028551,-0.032552,-0.036553,-0.036554,-0.04555,-0.036556,-0.036557,-0.036558,-0.028559,-0.028560,-0.028561,-0.028562,-0.028563,-0.036564,-0.036565,-0.04566,-0.036567,-0.036568,-0.036569,-0.036570,-0.036571,-0.036572,-0.032573,-0.032574,-0.032575,-0.032576,-0.032577,-0.028578,-0.036579,-0.036580,-0.04581,-0.044582,-0.044583,-0.044584,-0.044585,-0.04586,-0.036587,-0.036588,-0.032589,-0.032590,-0.036591,-0.04592,-0.044593,-0.044594,-0.044595,-0.044596,-0.044597,-0.036598,-0.036599,-0.04600,-0.036601,-0.04602,-0.04603,-0.04604,-0.044605,-0.044606,-0.044607,-0.04608,-0.044609,-0.044610,-0.036611,-0.036612,-0.036613,-0.04614,-0.036615,-0.04616,-0.04617,-0.044618,-0.036619,-0.04620,-0.036621,-0.036622,-0.036623,-0.036624,-0.036625,-0.036626,-0.036627,-0.036628,-0.032629,-0.028630,-0.036631,-0.032632,-0.04633,-0.044634,-0.044635,-0.048636,-0.044637,-0.044638,-0.044639,-0.04640,-0.036641,-0.032642,-0.036643,-0.04644,-0.04645,-0.044646,-0.04647,-0.04648,-0.036649,-0.036650,-0.036651,-0.036652,-0.044653,-0.04654,-0.04655,-0.04656,-0.036657,-0.032658,-0.028659,-0.028660,-0.028661,-0.032662,-0.032663,-0.036664,-0.04665,-0.036666,-0.036667,-0.036668,-0.032669,-0.036670,-0.036671,-0.04672,-0.036673,-0.04674,-0.036675,-0.036676,-0.036677,-0.036678,-0.04679,-0.036680,-0.036681,-0.036682,-0.032683,-0.036684,-0.032685,-0.028686,-0.032687,-0.036688,-0.04689,-0.044690,-0.044691,-0.044692,-0.04693,-0.032694,-0.028695,-0.028696,-0.032697,-0.032698,-0.036699,-0.036700,-0.04701,-0.036702,-0.036703,-0.028704,-0.032705,-0.028706,-0.032707,-0.036708,-0.032709,-0.036710,-0.036711,-0.036712,-0.032713,-0.036714,-0.032715,-0.032716,-0.036717,-0.036718,-0.032719,-0.032720,-0.032721,-0.028722,-0.028723,-0.028724,-0.032725,-0.032726,-0.04727,-0.04728,-0.044729,-0.044730,-0.044731,-0.036732,-0.036733,-0.028734,-0.028735,-0.024736,-0.02737,-0.028738,-0.028739,-0.04740,-0.044741,-0.044742,-0.044743,-0.044744,-0.044745,-0.04746,-0.036747,-0.036748,-0.028749,-0.032750,-0.028751,-0.032752,-0.036753,-0.036754,-0.032755,-0.036756,-0.028757,-0.036758,-0.032759,-0.036760,-0.04761,-0.04762,-0.044763,-0.04764,-0.036765,-0.036766,-0.036767,-0.036768,-0.036769,-0.036770,-0.04771,-0.036772,-0.036773,-0.028774,-0.028775,-0.028776,-0.028777,-0.032778,-0.04779,-0.044780,-0.048781,-0.044782,-0.044783,-0.044784,-0.044785,-0.036786,-0.036787,-0.032788,-0.032789,-0.032790,-0.028791,-0.036792,-0.036793,-0.044794,-0.04795,-0.044796,-0.044797,-0.044798,-0.044799,-0.04800,-0.036801,-0.028802,-0.032803,-0.028804,-0.028805,-0.032806,-0.032807,-0.036808,-0.036809,-0.036810,-0.032811,-0.036812,-0.036813,-0.036814,-0.044815,-0.044816,-0.044817,-0.044818,-0.044819,-0.036820,-0.036821,-0.036822,-0.032823,-0.036824,-0.04825,-0.036826,-0.04827,-0.036828,-0.036829,-0.028830,-0.032831,-0.036832,-0.036833,-0.044834,-0.044835,-0.04836,-0.044837,-0.036838,-0.036839,-0.028840,-0.028841,-0.02842,-0.028843,-0.028844,-0.032845,-0.036846,-0.036847,-0.04848,-0.036849,-0.036850,-0.036851,-0.036852,-0.036853,-0.04854,-0.036855,-0.04856,-0.04857,-0.036858,-0.04859,-0.036860,-0.036861,-0.036862,-0.032863,-0.032864,-0.028865,-0.028866,-0.032867,-0.036868,-0.036869,-0.04870,-0.04871,-0.044872,-0.044873,-0.04874,-0.04875,-0.04876,-0.036877,-0.036878,-0.036879,-0.028880,-0.028881,-0.028882,-0.02883,-0.028884,-0.032885,-0.04886,-0.044887,-0.044888,-0.044889,-0.044890,-0.044891,-0.036892,-0.036893,-0.028894,-0.028895,-0.028896,-0.028897,-0.028898,-0.032899,-0.036900,-0.036901,-0.036902,-0.036903,-0.04904,-0.036905,-0.036906,-0.036907,-0.028908,-0.028909,-0.028910,-0.028911,-0.028912,-0.032913,-0.036914,-0.036915,-0.036916,-0.032917,-0.028918,-0.028919,-0.028920,-0.036921,-0.032922,-0.036923,-0.04924,-0.036925,-0.044926,-0.036927,-0.032928,-0.036929,-0.028930,-0.032931,-0.028932,-0.028933,-0.028934,-0.028935,-0.02936,-0.02937,-0.02938,-0.028939,-0.036940,-0.036941,-0.044942,-0.044943,-0.036944,-0.032945,-0.02946,-0.02947,-0.012948,-0.016949,-0.016950,-0.02951,-0.028952,-0.028953,-0.028954,-0.028955,-0.032956,-0.028957,-0.028958,-0.028959,-0.032960,-0.028961,-0.032962,-0.028963,-0.028964,-0.028965,-0.028966,-0.024967,-0.028968,-0.032969,-0.028970,-0.036971,-0.032972,-0.032973,-0.036974,-0.032975,-0.024976,-0.028977,-0.028978,-0.028979,-0.028980,-0.032981,-0.028982,-0.032983,-0.028984,-0.032985,-0.028986,-0.032987,-0.032988,-0.028989,-0.028990,-0.032991,-0.032992,-0.036993,-0.032994,-0.036995,-0.036996,-0.04997,-0.036998,-0.04999,-0.041000,-0.041001,-0.041002,-0.041003,-0.0441004,-0.0441005,-0.0441006,-0.0441007,-0.041008,-0.0441009,-0.041010,-0.041011,-0.0361012,-0.0441013,-0.041014,-0.0441015,-0.0441016,-0.0441017,-0.0441018,-0.0441019,-0.0441020,-0.041021,-0.0441022,-0.0441023,-0.0441024,-0.041025,-0.0441026,-0.0441027,-0.0441028,-0.0441029,-0.0441030,-0.0441031,-0.0441032,-0.0481033,-0.0481034,-0.0441035,-0.0481036,-0.0441037,-0.0441038,-0.0481039,-0.0441040,-0.0441041,-0.041042,-0.041043,-0.0361044,-0.0361045,-0.041046,-0.0441047,-0.0481048,-0.0481049,-0.0521050,-0.0481051,-0.0441052,-0.0441053,-0.041054,-0.0361055,-0.041056,-0.0441057,-0.0441058,-0.0441059,-0.0481060,-0.0481061,-0.0441062,-0.0441063,-0.0441064,-0.0441065,-0.0441066,-0.0481067,-0.0481068,-0.0521069,-0.0481070,-0.0441071,-0.0441072,-0.0441073,-0.0441074,-0.0441075,-0.0441076,-0.0481077,-0.0521078,-0.0481079,-0.0481080,-0.0441081,-0.0361082,-0.0361083,-0.0361084,-0.041085,-0.0441086,-0.0481087,-0.0481088,-0.0481089,-0.0441090,-0.0481091,-0.0441092,-0.0441093,-0.0441094,-0.041095,-0.0441096,-0.0441097,-0.0481098,-0.0441099,-0.0521100,-0.0521101,-0.0521102,-0.0521103,-0.0521104,-0.0521105,-0.0481106,-0.0481107,-0.0441108,-0.0441109,-0.041110,-0.0481111,-0.0481112,-0.0521113,-0.061114,-0.061115,-0.061116,-0.061117,-0.0561118,-0.0561119,-0.0481120,-0.0481121,-0.0481122,-0.0521123,-0.0481124,-0.0481125,-0.0481126,-0.0521127,-0.0561128,-0.0521129,-0.061130,-0.061131,-0.061132,-0.061133,-0.0521134,-0.0481135,-0.0481136,-0.0441137,-0.0441138,-0.0441139,-0.0521140,-0.0521141,-0.061142,-0.061143,-0.061144,-0.061145,-0.061146,-0.061147,-0.061148,-0.0521149,-0.061150,-0.061151,-0.061152,-0.061153,-0.061154,-0.061155,-0.061156,-0.0561157,-0.0561158,-0.0481159,-0.0521160,-0.0521161,-0.0521162,-0.061163,-0.061164,-0.0561165,-0.061166,-0.061167,-0.061168,-0.0561169,-0.0521170,-0.0481171,-0.0521172,-0.0481173,-0.0521174,-0.0481175,-0.0561176,-0.0481177,-0.0521178,-0.0561179,-0.0561180,-0.0561181,-0.061182,-0.061183,-0.061184,-0.061185,-0.061186,-0.0561187,-0.0521188,-0.0481189,-0.0441190,-0.0441191,-0.0481192,-0.0561193,-0.0561194,-0.061195,-0.061196,-0.0521197,-0.0481198,-0.0481199,-0.0441200,-0.0481201,-0.0441202,-0.0521203,-0.061204,-0.061205,-0.061206,-0.061207,-0.0521208,-0.0521209,-0.0561210,-0.0481211,-0.0561212,-0.0521213,-0.0521214,-0.0521215,-0.0521216,-0.0481217,-0.0521218,-0.0561219,-0.061220,-0.0561221,-0.061222,-0.0521223,-0.0521224,-0.0521225,-0.0441226,-0.0441227,-0.0441228,-0.0441229,-0.0441230,-0.0441231,-0.0481232,-0.0521233,-0.0481234,-0.0521235,-0.0481236,-0.0521237,-0.0481238,-0.0521239,-0.0561240,-0.0481241,-0.0481242,-0.0481243,-0.0441244,-0.0441245,-0.0441246,-0.0521247,-0.0561248,-0.061249,-0.061250,-0.0561251,-0.0481252,-0.0481253,-0.0441254,-0.0481255,-0.0481256,-0.0521257,-0.0561258,-0.061259,-0.061260,-0.061261,-0.0521262,-0.0441263,-0.0441264,-0.0441265,-0.041266,-0.0441267,-0.0441268,-0.0441269,-0.0481270,-0.0481271,-0.0521272,-0.0521273,-0.0521274,-0.0521275,-0.061276,-0.061277,-0.0521278,-0.0481279,-0.0441280,-0.0441281,-0.0441282,-0.041283,-0.041284,-0.041285,-0.0441286,-0.0441287,-0.0481288,-0.0561289,-0.061290,-0.061291,-0.061292,-0.0521293,-0.0521294,-0.0441295,-0.0441296,-0.0441297,-0.0441298,-0.0441299,-0.0481300,-0.0441301,-0.0481302,-0.0481303,-0.0521304,-0.0441305,-0.0441306,-0.0481307,-0.0481308,-0.0521309,-0.0521310,-0.061311,-0.0521312,-0.0561313,-0.0481314,-0.0481315,-0.0441316,-0.0441317,-0.041318,-0.0441319,-0.0441320,-0.0441321,-0.0521322,-0.0441323,-0.0521324,-0.0521325,-0.0521326,-0.0521327,-0.0521328,-0.061329,-0.0521330,-0.0521331,-0.0481332,-0.0441333,-0.0441334,-0.0441335,-0.0441336,-0.0481337,-0.0481338,-0.0521339,-0.0521340,-0.0521341,-0.0481342,-0.0481343,-0.0481344,-0.0521345,-0.0481346,-0.0521347,-0.0481348,-0.0481349,-0.0481350,-0.0441351,-0.0481352,-0.0441353,-0.0481354,-0.0521355,-0.0521356,-0.0521357,-0.0481358,-0.0481359,-0.0481360,-0.0481361,-0.0481362,-0.0521363,-0.061364,-0.061365,-0.061366,-0.061367,-0.0521368,-0.0481369,-0.0441370,-0.041371,-0.041372,-0.0441373,-0.0441374,-0.0441375,-0.0481376,-0.0481377,-0.0481378,-0.0481379,-0.0441380,-0.0441381,-0.0481382,-0.0481383,-0.0521384,-0.0481385,-0.0481386,-0.0441387,-0.0441388,-0.0441389,-0.041390,-0.0441391,-0.0441392,-0.0481393,-0.0521394,-0.0521395,-0.0521396,-0.0521397,-0.0481398,-0.0521399,-0.0441400,-0.0441401,-0.0481402,-0.0481403,-0.0481404,-0.0481405,-0.0481406,-0.0441407,-0.0481408,-0.0441409,-0.0441410,-0.0441411,-0.0441412,-0.0441413,-0.0441414,-0.0441415,-0.0481416,-0.0481417,-0.0481418,-0.0521419,-0.0521420,-0.0481421,-0.0521422,-0.0481423,-0.0441424,-0.0441425,-0.0441426,-0.0481427,-0.0441428,-0.0441429,-0.0441430,-0.0481431,-0.0441432,-0.0481433,-0.0561434,-0.061435,-0.061436,-0.061437,-0.0561438,-0.0561439,-0.0441440,-0.0441441,-0.0361442,-0.0361443,-0.0361444,-0.041445,-0.0361446,-0.0441447,-0.0481448,-0.0481449,-0.0521450,-0.0561451,-0.0481452,-0.0561453,-0.0481454,-0.0441455,-0.0441456,-0.0441457,-0.0441458,-0.041459,-0.041460,-0.0441461,-0.0441462,-0.0481463,-0.0441464,-0.0481465,-0.0481466,-0.0441467,-0.0441468,-0.0441469,-0.0441470,-0.0441471,-0.0481472,-0.0481473,-0.0481474,-0.0481475,-0.0441476,-0.041477,-0.0441478,-0.0441479,-0.0441480,-0.0441481,-0.0441482,-0.0441483,-0.0441484,-0.0441485,-0.041486,-0.0441487,-0.0441488,-0.0481489,-0.0481490,-0.0521491,-0.0481492,-0.0481493,-0.0441494,-0.0441495,-0.041496,-0.0361497,-0.0361498,-0.041499,-0.0441500,-0.0481501,-0.0521502,-0.0521503,-0.0481504,-0.0441505,-0.0441506,-0.041507,-0.0441508,-0.0441509,-0.0441510,-0.0481511,-0.0481512,-0.0441513,-0.0481514,-0.0481515,-0.0441516,-0.0441517,-0.0441518,-0.0441519,-0.0441520,-0.0441521,-0.0441522,-0.0441523,-0.0441524,-0.0441525,-0.0441526,-0.0481527,-0.0441528,-0.0441529,-0.0481530,-0.0441531,-0.0441532,-0.0441533,-0.041534,-0.0441535,-0.0441536,-0.0441537,-0.0441538,-0.0481539,-0.0481540,-0.0521541,-0.0521542,-0.0561543,-0.0521544,-0.0561545,-0.0481546,-0.0521547,-0.0441548,-0.0441549,-0.0481550,-0.0441551,-0.0481552,-0.0521553,-0.0521554,-0.0521555,-0.0481556,-0.0481557,-0.0481558,-0.0441559,-0.0441560,-0.0441561,-0.041562,-0.0441563,-0.0481564,-0.0481565,-0.0521566,-0.0521567,-0.0481568,-0.0481569,-0.0481570,-0.0441571,-0.0441572,-0.0441573,-0.0441574,-0.0441575,-0.0441576,-0.0481577,-0.0481578,-0.0521579,-0.0561580,-0.061581,-0.0521582,-0.0521583,-0.0441584,-0.0481585,-0.0441586,-0.0441587,-0.0441588,-0.0441589,-0.0441590,-0.0441591,-0.0441592,-0.0441593,-0.0481594,-0.0481595,-0.0441596,-0.0521597,-0.0481598,-0.0481599,-0.0441600,-0.0361601,-0.0361602,-0.0361603,-0.0321604,-0.041605,-0.0441606,-0.0481607,-0.0521608,-0.0481609,-0.0481610,-0.0441611,-0.041612,-0.0361613,-0.0321614,-0.0361615,-0.0361616,-0.0441617,-0.041618,-0.0441619,-0.0441620,-0.041621,-0.041622,-0.0361623,-0.041624,-0.041625,-0.0441626,-0.0441627,-0.0441628,-0.041629,-0.0441630,-0.0361631,-0.0361632,-0.0361633,-0.0441634,-0.041635,-0.0441636,-0.0481637,-0.0441638,-0.0441639,-0.0441640,-0.041641,-0.0441642,-0.0441643,-0.0441644,-0.0441645,-0.0481646,-0.0441647,-0.0481648,-0.0441649,-0.0441650,-0.0441651,-0.0441652,-0.0441653,-0.0441654,-0.0441655,-0.0441656,-0.0441657,-0.0481658,-0.0481659,-0.0521660,-0.0521661,-0.0521662,-0.0521663,-0.0481664,-0.0441665,-0.041666,-0.041667,-0.041668,-0.041669,-0.0441670,-0.0481671,-0.0481672,-0.0521673,-0.0521674,-0.0521675,-0.0481676,-0.0521677,-0.0441678,-0.0481679,-0.0441680,-0.0481681,-0.0481682,-0.0441683,-0.0481684,-0.0441685,-0.0481686,-0.0481687,-0.0521688,-0.0521689,-0.0521690,-0.0521691,-0.0521692,-0.0521693,-0.0481694,-0.0481695,-0.0481696,-0.0481697,-0.0481698,-0.0521699,-0.041700,-0.061701,-0.0441702,-0.041703,-0.0441704,-0.0441705,-0.0361706,-0.0281707,-0.0281708,-0.0161709,-0.0121710,0.0041711,0.021712,0.0041713,0.021714,0.0041715,0.0041716,0.021717,0.0441718,0.0721719,0.1081720,0.141721,0.161722,0.1761723,0.1721724,0.1681725,0.161726,0.1521727,0.1481728,0.1321729,0.1241730,0.1121731,0.0961732,0.081733,0.0681734,0.061735,0.0521736,0.0441737,0.0361738,0.0241739,0.0161740,0.0041741,-0.0121742,-0.021743,-0.0281744,-0.0361745,-0.041746,-0.0441747,-0.0481748,-0.061749,-0.0641750,-0.0761751,-0.0841752,-0.0921753,-0.11754,-0.11755,-0.1121756,-0.1121757,-0.1121758,-0.1161759,-0.1281760,-0.1281761,-0.1321762,-0.1361763,-0.141764,-0.1441765,-0.1441766,-0.1441767,-0.1521768,-0.1561769,-0.1561770,-0.1521771,-0.1441772,-0.141773,-0.141774,-0.1361775,-0.1321776,-0.1361777,-0.1361778,-0.1361779,-0.1361780,-0.1361781,-0.1361782,-0.1321783,-0.1281784,-0.1281785,-0.1281786,-0.1281787,-0.1161788,-0.1161789,-0.1081790,-0.0961791,-0.0841792,-0.081793,-0.0761794,-0.0721795,-0.0721796,-0.0681797,-0.0681798,-0.0681799,-0.0681800,-0.061801,-0.0561802,-0.0521803,-0.0481804,-0.0481805,-0.0441806,-0.0441807,-0.0361808,-0.0361809,-0.0281810,-0.0241811,-0.0161812,-0.021813,-0.021814,-0.0161815,-0.0241816,-0.0281817,-0.0281818,-0.0281819,-0.0321820,-0.0281821,-0.0281822,-0.0281823,-0.0241824,-0.021825,-0.021826,-0.021827,-0.021828,-0.0281829,-0.0281830,-0.0321831,-0.0281832,-0.0361833,-0.0361834,-0.0361835,-0.041836,-0.041837,-0.0441838,-0.0441839,-0.0441840,-0.0441841,-0.0441842,-0.041843,-0.041844,-0.0361845,-0.041846,-0.0441847,-0.0441848,-0.0481849,-0.0481850,-0.0521851,-0.0441852,-0.0481853,-0.0481854,-0.0441855,-0.0441856,-0.0481857,-0.0481858,-0.0521859,-0.061860,-0.0521861,-0.0561862,-0.0521863,-0.0441864,-0.0441865,-0.0441866,-0.0481867,-0.0481868,-0.0521869,-0.061870,-0.061871,-0.061872,-0.061873,-0.0641874,-0.061875,-0.061876,-0.061877,-0.061878,-0.0521879,-0.0481880,-0.0481881,-0.0441882,-0.0441883,-0.0481884,-0.0481885,-0.0521886,-0.061887,-0.061888,-0.0561889,-0.0521890,-0.0561891,-0.0521892,-0.0521893,-0.0521894,-0.0481895,-0.0561896,-0.0481897,-0.0481898,-0.0481899,-0.0481900,-0.0481901,-0.0521902,-0.0561903,-0.0521904,-0.061905,-0.0521906,-0.0481907,-0.0481908,-0.0441909,-0.0481910,-0.0481911,-0.061912,-0.0641913,-0.061914,-0.0641915,-0.061916,-0.0521917,-0.0481918,-0.0441919,-0.041920,-0.041921,-0.0441922,-0.0441923,-0.0481924,-0.0521925,-0.061926,-0.061927,-0.061928,-0.061929,-0.061930,-0.061931,-0.061932,-0.0561933,-0.0521934,-0.0521935,-0.0481936,-0.0481937,-0.0481938,-0.0441939,-0.0521940,-0.061941,-0.061942,-0.0681943,-0.0641944,-0.0681945,-0.061946,-0.0641947,-0.061948,-0.0561949,-0.0521950,-0.0521951,-0.0481952,-0.0441953,-0.0481954,-0.0521955,-0.0521956,-0.061957,-0.061958,-0.061959,-0.061960,-0.061961,-0.061962,-0.061963,-0.061964,-0.0641965,-0.0681966,-0.0681967,-0.0681968,-0.0641969,-0.0641970,-0.061971,-0.061972,-0.0561973,-0.061974,-0.0641975,-0.0681976,-0.0681977,-0.0681978,-0.0721979,-0.0681980,-0.0721981,-0.0681982,-0.0761983,-0.0681984,-0.0721985,-0.0681986,-0.061987,-0.0641988,-0.061989,-0.061990,-0.0561991,-0.061992,-0.061993,-0.0681994,-0.0681995,-0.0681996,-0.0681997,-0.0681998,-0.0681999,-0.0642000,-0.0682001,-0.0642002,-0.0642003,-0.062004,-0.062005,-0.062006,-0.062007,-0.062008,-0.062009,-0.0642010,-0.0642011,-0.0642012,-0.062013,-0.062014,-0.062015,-0.062016,-0.062017,-0.062018,-0.0642019,-0.0682020,-0.0682021,-0.0722022,-0.0682023,-0.062024,-0.062025,-0.0522026,-0.0522027,-0.0482028,-0.0522029,-0.062030,-0.062031,-0.0642032,-0.062033,-0.0522034,-0.0522035,-0.0482036,-0.0522037,-0.0522038,-0.0522039,-0.0522040,-0.0562041,-0.0482042,-0.0482043,-0.0442044,-0.0482045,-0.0482046,-0.0522047,-0.062048,-0.062049,-0.062050,-0.062051,-0.0522052,-0.0482053,-0.0442054,-0.0442055,-0.0442056,-0.0522057,-0.0522058,-0.062059,-0.062060,-0.062061,-0.062062,-0.0522063,-0.0522064,-0.0482065,-0.0442066,-0.0442067,-0.0442068,-0.0482069,-0.0522070,-0.0522071,-0.062072,-0.062073,-0.0642074,-0.062075,-0.062076,-0.062077,-0.0522078,-0.0482079,-0.0442080,-0.0442081,-0.0482082,-0.0482083,-0.0522084,-0.0562085,-0.062086,-0.062087,-0.0642088,-0.0642089,-0.062090,-0.062091,-0.062092,-0.062093,-0.062094,-0.062095,-0.0482096,-0.0562097,-0.0562098,-0.062099,-0.062100,-0.0642101,-0.062102,-0.0682103,-0.0682104,-0.062105,-0.062106,-0.0522107,-0.062108,-0.0522109,-0.062110,-0.062111,-0.062112,-0.0682113,-0.062114,-0.0682115,-0.062116,-0.0682117,-0.0642118,-0.0642119,-0.062120,-0.0642121,-0.062122,-0.062123,-0.0642124,-0.062125,-0.0642126,-0.0682127,-0.0642128,-0.0642129,-0.0522130,-0.0522131,-0.0522132,-0.0522133,-0.0522134,-0.062135,-0.0682136,-0.0722137,-0.0762138,-0.0762139,-0.0682140,-0.062141,-0.062142,-0.0522143,-0.0522144,-0.0522145,-0.062146,-0.062147,-0.062148,-0.062149,-0.062150,-0.062151,-0.062152,-0.062153,-0.0642154,-0.0642155,-0.0682156,-0.0642157,-0.062158,-0.0522159,-0.0482160,-0.0442161,-0.0442162,-0.0482163,-0.062164,-0.062165,-0.0642166,-0.062167,-0.062168,-0.062169,-0.0522170,-0.0522171,-0.0482172,-0.0482173,-0.0522174,-0.0522175,-0.0522176,-0.0562177,-0.0522178,-0.0522179,-0.0522180,-0.0482181,-0.0522182,-0.0482183,-0.0522184,-0.0482185,-0.0482186,-0.0442187,-0.0442188,-0.0482189,-0.0442190,-0.0482191,-0.0482192,-0.0482193,-0.0482194,-0.0442195,-0.0442196,-0.0442197,-0.0442198,-0.0482199,-0.0482200,-0.0442201,-0.0482202,-0.0442203,-0.0522204,-0.0482205,-0.0522206,-0.0522207,-0.0522208,-0.0482209,-0.0482210,-0.0442211,-0.042212,-0.042213,-0.0362214,-0.0322215,-0.0362216,-0.042217,-0.042218,-0.0442219,-0.0482220,-0.0442221,-0.0482222,-0.0442223,-0.042224,-0.042225,-0.0362226,-0.0362227,-0.0282228,-0.0362229,-0.0362230,-0.0362231,-0.0362232,-0.042233,-0.042234,-0.042235,-0.0362236,-0.0322237,-0.0322238,-0.0362239,-0.0322240,-0.0322241,-0.0282242,-0.0362243,-0.0322244,-0.0362245,-0.0282246,-0.0362247,-0.0322248,-0.0362249,-0.0322250,-0.0322251,-0.0322252,-0.0322253,-0.0282254,-0.0282255,-0.0282256,-0.0242257,-0.0282258,-0.0282259,-0.0282260,-0.0362261,-0.042262,-0.0442263,-0.0362264,-0.0362265,-0.0282266,-0.0242267,-0.022268,-0.0162269,-0.0282270,-0.0282271,-0.0322272,-0.0362273,-0.0362274,-0.0322275,-0.0282276,-0.0282277,-0.0282278,-0.0282279,-0.0322280,-0.0282281,-0.0282282,-0.0322283,-0.0282284,-0.0282285,-0.022286,-0.0162287,-0.022288,-0.022289,-0.0242290,-0.0282291,-0.0322292,-0.0322293,-0.0282294,-0.0362295,-0.0362296,-0.0322297,-0.0362298,-0.0362299,-0.0362300,-0.0322301,-0.0322302,-0.0322303,-0.0282304,-0.0282305,-0.0322306,-0.0322307,-0.0362308,-0.0442309,-0.0442310,-0.0442311,-0.0442312,-0.0442313,-0.0442314,-0.0442315,-0.0442316,-0.0442317,-0.0442318,-0.0362319,-0.0362320,-0.0282321,-0.0282322,-0.0322323,-0.0362324,-0.0362325,-0.0442326,-0.0442327,-0.0442328,-0.0442329,-0.0442330,-0.042331,-0.0362332,-0.042333,-0.042334,-0.0442335,-0.0442336,-0.0442337,-0.0362338,-0.042339,-0.0362340,-0.0362341,-0.0362342,-0.0322343,-0.0322344,-0.042345,-0.042346,-0.0442347,-0.0442348,-0.0442349,-0.0482350,-0.0442351,-0.0442352,-0.042353,-0.0442354,-0.0362355,-0.0362356,-0.0362357,-0.0362358,-0.0362359,-0.0362360,-0.0362361,-0.0362362,-0.042363,-0.0362364,-0.042365,-0.0442366,-0.0442367,-0.0442368,-0.0442369,-0.042370,-0.0322371,-0.0282372,-0.0282373,-0.022374,-0.0162375,-0.022376,-0.0282377,-0.0362378,-0.0362379,-0.042380,-0.042381,-0.0362382,-0.0362383,-0.0322384,-0.0282385,-0.0282386,-0.0322387,-0.0282388,-0.0362389,-0.0322390,-0.0282391,-0.0282392,-0.0242393,-0.022394,-0.0282395,-0.0282396,-0.0362397,-0.0322398,-0.0322399,-0.0282400,-0.0282401,-0.022402,-0.0282403,-0.022404,-0.0282405,-0.0362406,-0.0362407,-0.0362408,-0.042409,-0.0362410,-0.0282411,-0.0282412,-0.022413,-0.022414,-0.022415,-0.022416,-0.0282417,-0.0322418,-0.0362419,-0.0362420,-0.042421,-0.0442422,-0.042423,-0.0442424,-0.0362425,-0.0322426,-0.0282427,-0.0242428,-0.0162429,-0.0122430,-0.0162431,-0.0282432,-0.0322433,-0.0362434,-0.0362435,-0.0362436,-0.0442437,-0.0362438,-0.0362439,-0.042440,-0.0362441,-0.042442,-0.042443,-0.042444,-0.0362445,-0.0362446,-0.0322447,-0.0362448,-0.0362449,-0.042450,-0.042451,-0.0442452,-0.0442453,-0.0442454,-0.0442455,-0.0442456,-0.042457,-0.042458,-0.042459,-0.0442460,-0.0442461,-0.0442462,-0.0442463,-0.0442464,-0.0362465,-0.0362466,-0.0282467,-0.0322468,-0.0322469,-0.0362470,-0.042471,-0.0442472,-0.0442473,-0.0482474,-0.0482475,-0.0442476,-0.0442477,-0.042478,-0.0322479,-0.0322480,-0.0282481,-0.0282482,-0.0282483,-0.0362484,-0.042485,-0.0442486,-0.0442487,-0.0442488,-0.0442489,-0.0442490,-0.042491,-0.0362492,-0.0442493,-0.042494,-0.0442495,-0.042496,-0.0442497,-0.042498,-0.0362499,-0.0362500,-0.0362501,-0.0362502,-0.0362503,-0.0442504,-0.0442505,-0.0442506,-0.042507,-0.042508,-0.0362509,-0.0362510,-0.042511,-0.042512,-0.0442513,-0.0442514,-0.0442515,-0.042516,-0.0362517,-0.0282518,-0.0282519,-0.0282520,-0.0282521,-0.0282522,-0.0362523,-0.042524,-0.0442525,-0.0442526,-0.0442527,-0.0442528,-0.0442529,-0.0362530,-0.0442531,-0.042532,-0.0362533,-0.0362534,-0.0362535,-0.0362536,-0.042537,-0.042538,-0.0442539,-0.0442540,-0.0442541,-0.0442542,-0.042543,-0.0362544,-0.0322545,-0.0362546,-0.0322547,-0.0362548,-0.042549,-0.042550,-0.0442551,-0.0442552,-0.0442553,-0.0362554,-0.0362555,-0.0362556,-0.0362557,-0.042558,-0.042559,-0.042560,-0.0362561,-0.042562,-0.0362563,-0.042564,-0.0362565,-0.0442566,-0.0442567,-0.0482568,-0.0482569,-0.0442570,-0.0442571,-0.0362572,-0.0362573,-0.0282574,-0.0282575,-0.0322576,-0.042577,-0.0442578,-0.0442579,-0.0442580,-0.0482581,-0.0482582,-0.0442583,-0.0442584,-0.0442585,-0.042586,-0.042587,-0.0362588,-0.0442589,-0.042590,-0.0442591,-0.0442592,-0.0442593,-0.042594,-0.0442595,-0.0442596,-0.0442597,-0.0442598,-0.0482599,-0.0442600,-0.0482601,-0.0482602,-0.0482603,-0.0442604,-0.0442605,-0.0442606,-0.0442607,-0.0442608,-0.042609,-0.0442610,-0.0442611,-0.0442612,-0.0442613,-0.0442614,-0.042615,-0.0442616,-0.0442617,-0.0442618,-0.0442619,-0.0522620,-0.0482621,-0.0482622,-0.0482623,-0.0442624,-0.0442625,-0.0442626,-0.042627,-0.042628,-0.0442629,-0.0442630,-0.0522631,-0.0522632,-0.0522633,-0.0522634,-0.0482635,-0.0442636,-0.0442637,-0.0442638,-0.0442639,-0.0442640,-0.0442641,-0.0442642,-0.0442643,-0.0442644,-0.0482645,-0.0442646,-0.0482647,-0.0442648,-0.0482649,-0.0442650,-0.0442651,-0.042652,-0.042653,-0.0362654,-0.0362655,-0.0442656,-0.0442657,-0.0442658,-0.0442659,-0.0442660,-0.042661,-0.0442662,-0.0442663,-0.042664,-0.042665,-0.0442666,-0.042667,-0.042668,-0.042669,-0.0362670,-0.0362671,-0.042672,-0.042673,-0.0442674,-0.0442675,-0.0442676,-0.0442677,-0.0442678,-0.0362679,-0.0322680,-0.0282681,-0.0362682,-0.0442683,-0.0442684,-0.0482685,-0.0482686,-0.0482687,-0.0442688,-0.0362689,-0.0282690,-0.0282691,-0.0282692,-0.0322693,-0.0322694,-0.0362695,-0.042696,-0.042697,-0.042698,-0.0362699,-0.042700,-0.0362701,-0.0322702,-0.0362703,-0.0322704,-0.0322705,-0.0322706,-0.0322707,-0.0282708,-0.0322709,-0.0362710,-0.0362711,-0.0442712,-0.0442713,-0.0442714,-0.0442715,-0.0442716,-0.0442717,-0.0442718,-0.0362719,-0.0362720,-0.0362721,-0.0362722,-0.042723,-0.0362724,-0.0442725,-0.0442726,-0.0482727,-0.0482728,-0.0482729,-0.0482730,-0.0442731,-0.042732,-0.0442733,-0.042734,-0.0442735,-0.0442736,-0.0442737,-0.0442738,-0.0442739,-0.0442740,-0.0442741,-0.0442742,-0.0442743,-0.0442744,-0.0482745,-0.0482746,-0.0482747,-0.0482748,-0.0482749,-0.0442750,-0.0442751,-0.0482752,-0.0442753,-0.0442754,-0.0442755,-0.0482756,-0.0482757,-0.0482758,-0.0482759,-0.0482760,-0.0442761,-0.042762,-0.0442763,-0.0442764,-0.0442765,-0.0442766,-0.0442767,-0.0442768,-0.0482769,-0.0482770,-0.0522771,-0.0562772,-0.0522773,-0.0522774,-0.0522775,-0.0482776,-0.0442777,-0.0442778,-0.0442779,-0.0442780,-0.0482781,-0.0482782,-0.0522783,-0.0522784,-0.0482785,-0.0442786,-0.0442787,-0.0442788,-0.0442789,-0.0482790,-0.0482791,-0.0482792,-0.0482793,-0.0442794,-0.0442795,-0.0322796,-0.0362797,-0.0322798,-0.0362799,-0.042800,-0.0442801,-0.0442802,-0.0442803,-0.0442804,-0.0442805,-0.042806,-0.0362807,-0.0442808,-0.0442809,-0.0442810,-0.0442811,-0.0442812,-0.0362813,-0.0362814,-0.0362815,-0.0322816,-0.0322817,-0.0362818,-0.0362819,-0.0442820,-0.0482821,-0.0482822,-0.0482823,-0.0442824,-0.0442825,-0.042826,-0.0362827,-0.042828,-0.042829,-0.042830,-0.0362831,-0.0442832,-0.0362833,-0.042834,-0.0362835,-0.042836,-0.0442837,-0.0442838,-0.0442839,-0.042840,-0.0442841,-0.042842,-0.0442843,-0.0442844,-0.0442845,-0.0442846,-0.042847,-0.0362848,-0.0322849,-0.0322850,-0.0282851,-0.0282852,-0.0282853,-0.0362854,-0.0362855,-0.0442856,-0.0442857,-0.0482858,-0.0482859,-0.0482860,-0.0482861,-0.0522862,-0.0482863,-0.0442864,-0.0442865,-0.042866,-0.042867,-0.0322868,-0.0362869,-0.0362870,-0.0442871,-0.0442872,-0.0482873,-0.0482874,-0.0522875,-0.0482876,-0.0482877,-0.0442878,-0.0442879,-0.0362880,-0.0362881,-0.0362882,-0.0322883,-0.0362884,-0.0362885,-0.0442886,-0.0442887,-0.0442888,-0.0442889,-0.0442890,-0.0442891,-0.042892,-0.042893,-0.0362894,-0.0362895,-0.0362896,-0.0442897,-0.0442898,-0.0442899,-0.0442900,-0.0442901,-0.0442902,-0.0362903,-0.0362904,-0.0322905,-0.0362906,-0.042907,-0.042908,-0.042909,-0.0442910,-0.042911,-0.042912,-0.042913,-0.042914,-0.0442915,-0.0442916,-0.0482917,-0.0442918,-0.0442919,-0.042920,-0.0362921,-0.0282922,-0.0282923,-0.0282924,-0.0362925,-0.0442926,-0.0442927,-0.0522928,-0.0522929,-0.0482930,-0.0442931,-0.042932,-0.042933,-0.0362934,-0.042935,-0.0442936,-0.0442937,-0.0442938,-0.0442939,-0.042940,-0.042941,-0.0362942,-0.0362943,-0.0362944,-0.042945,-0.0442946,-0.0442947,-0.0442948,-0.0442949,-0.0482950,-0.0442951,-0.0482952,-0.0482953,-0.0442954,-0.0482955,-0.0442956,-0.042957,-0.0442958,-0.042959,-0.0362960,-0.0442961,-0.0442962,-0.0442963,-0.0482964,-0.0522965,-0.0522966,-0.0522967,-0.0522968,-0.062969,-0.0522970,-0.0522971,-0.0482972,-0.0442973,-0.0442974,-0.0442975,-0.042976,-0.042977,-0.042978,-0.0442979,-0.0482980,-0.0522981,-0.0522982,-0.0522983,-0.0482984,-0.0482985,-0.0442986,-0.0442987,-0.0442988,-0.0442989,-0.0442990,-0.0442991,-0.0442992,-0.0442993,-0.0442994,-0.0442995,-0.0442996,-0.042997,-0.0442998,-0.0442999,-0.0443000,-0.0443001,-0.0443002,-0.0443003,-0.0483004,-0.0483005,-0.0443006,-0.0483007,-0.0443008,-0.0363009,-0.0363010,-0.0363011,-0.0283012,-0.0323013,-0.043014,-0.0363015,-0.0443016,-0.0443017,-0.0443018,-0.0443019,-0.0443020,-0.043021,-0.0443022,-0.0443023,-0.043024,-0.0363025,-0.0323026,-0.0243027,-0.023028,-0.0163029,-0.0163030,-0.0243031,-0.0283032,-0.0363033,-0.0443034,-0.0443035,-0.0443036,-0.0363037,-0.0323038,-0.0283039,-0.023040,-0.0243041,-0.0283042,-0.0363043,-0.043044,-0.043045,-0.043046,-0.0363047,-0.0363048,-0.0323049,-0.0323050,-0.0323051,-0.0283052,-0.0363053,-0.0323054,-0.0323055,-0.0323056,-0.0323057,-0.0283058,-0.0283059,-0.0363060,-0.0363061,-0.0363062,-0.0363063,-0.0323064,-0.0323065,-0.0283066,-0.0283067,-0.0283068,-0.0323069,-0.0363070,-0.0363071,-0.0363072,-0.0443073,-0.0443074,-0.043075,-0.0443076,-0.043077,-0.0443078,-0.043079,-0.0443080,-0.043081,-0.043082,-0.0363083,-0.0443084,-0.043085,-0.0443086,-0.0443087,-0.0483088,-0.0443089,-0.0483090,-0.0443091,-0.043092,-0.0443093,-0.0443094,-0.0443095,-0.0443096,-0.0523097,-0.0483098,-0.0523099,-0.0483100,-0.0443101,-0.0443102,-0.043103,-0.0363104,-0.043105,-0.0443106,-0.0443107,-0.0483108,-0.0483109,-0.0523110,-0.0523111,-0.0563112,-0.0483113,-0.0523114,-0.0443115,-0.0483116,-0.0443117,-0.0443118,-0.0443119,-0.0443120,-0.0443121,-0.0443122,-0.0443123,-0.0483124,-0.0483125,-0.0483126,-0.0523127,-0.0483128,-0.0483129,-0.0523130,-0.0483131,-0.0443132,-0.0483133,-0.0443134,-0.0443135,-0.0443136,-0.0443137,-0.0443138,-0.0483139,-0.0523140,-0.0523141,-0.0483142,-0.0483143,-0.0443144,-0.0443145,-0.0443146,-0.0443147,-0.0483148,-0.0523149,-0.0523150,-0.0523151,-0.0523152,-0.0443153,-0.0443154,-0.043155,-0.0363156,-0.0363157,-0.0443158,-0.0443159,-0.0443160,-0.0483161,-0.0443162,-0.0443163,-0.0443164,-0.043165,-0.043166,-0.0363167,-0.0443168,-0.043169,-0.0443170,-0.043171,-0.043172,-0.0363173,-0.0363174,-0.0363175,-0.043176,-0.0443177,-0.0443178,-0.0483179,-0.0483180,-0.0443181,-0.0443182,-0.0363183,-0.0363184,-0.0363185,-0.0363186,-0.0363187,-0.043188,-0.0363189,-0.0443190,-0.0443191,-0.0483192,-0.0443193,-0.0523194,-0.0483195,-0.0523196,-0.0443197,-0.0443198,-0.043199,-0.0363200,-0.0323201,-0.0363202,-0.0363203,-0.0443204,-0.0443205,-0.0483206,-0.0483207,-0.0483208,-0.0443209,-0.0443210,-0.0363211,-0.043212,-0.0363213,-0.0363214,-0.043215,-0.0363216,-0.0363217,-0.0363218,-0.0443219,-0.043220,-0.0443221,-0.0483222,-0.0523223,-0.063224,-0.0563225,-0.0523226,-0.0483227,-0.0443228,-0.0443229,-0.043230,-0.0443231,-0.0443232,-0.0443233,-0.0483234,-0.0483235,-0.0483236,-0.0523237,-0.0483238,-0.0443239,-0.0443240,-0.0443241,-0.0443242,-0.0443243,-0.0443244,-0.0443245,-0.0483246,-0.0483247,-0.0523248,-0.0483249,-0.0443250,-0.0443251,-0.0443252,-0.043253,-0.0443254,-0.0443255,-0.0443256,-0.0483257,-0.0483258,-0.0523259,-0.0483260,-0.0483261,-0.0483262,-0.0443263,-0.0443264,-0.0483265,-0.0523266,-0.0483267,-0.0443268,-0.0443269,-0.043270,-0.0363271,-0.0363272,-0.043273,-0.0443274,-0.0483275,-0.0523276,-0.0523277,-0.0483278,-0.0443279,-0.0443280,-0.0443281,-0.043282,-0.043283,-0.0443284,-0.0483285,-0.0523286,-0.0483287,-0.0523288,-0.0483289,-0.0443290,-0.0443291,-0.0443292,-0.0443293,-0.0443294,-0.0483295,-0.0483296,-0.0443297,-0.0483298,-0.0483299,-0.0483300,-0.0483301,-0.0523302,-0.0483303,-0.0483304,-0.0443305,-0.0443306,-0.043307,-0.0443308,-0.043309,-0.0443310,-0.0443311,-0.0443312,-0.0523313,-0.0483314,-0.0523315,-0.0483316,-0.0483317,-0.0483318,-0.0483319,-0.0523320,-0.0523321,-0.063322,-0.0523323,-0.0523324,-0.0523325,-0.0483326,-0.0483327,-0.0523328,-0.0563329,-0.063330,-0.063331,-0.063332,-0.063333,-0.063334,-0.063335,-0.063336,-0.063337,-0.063338,-0.063339,-0.063340,-0.0643341,-0.063342,-0.063343,-0.0523344,-0.0483345,-0.0443346,-0.0483347,-0.0483348,-0.063349,-0.0643350,-0.0683351,-0.0683352,-0.0763353,-0.0723354,-0.0683355,-0.063356,-0.063357,-0.0523358,-0.0523359,-0.0443360,-0.0523361,-0.0483362,-0.063363,-0.063364,-0.0643365,-0.0683366,-0.0683367,-0.0723368,-0.0683369,-0.0683370,-0.0763371,-0.0723372,-0.0683373,-0.0683374,-0.063375,-0.063376,-0.063377,-0.063378,-0.063379,-0.0643380,-0.0683381,-0.0763382,-0.0763383,-0.0763384,-0.0763385,-0.0723386,-0.0683387,-0.063388,-0.063389,-0.0643390,-0.0643391,-0.0683392,-0.0683393,-0.0723394,-0.0683395,-0.0683396,-0.063397,-0.0683398,-0.063399,-0.063400,-0.063401,-0.0643402,-0.0763403,-0.083404,-0.083405,-0.083406,-0.0763407,-0.0763408,-0.13409,-0.0523410,-0.0443411,-0.083412,-0.0763413,-0.0723414,-0.0763415,-0.0963416,-0.1123417,-0.1283418,-0.1323419,-0.143420,-0.1443421,-0.1363422,-0.1283423,-0.1283424,-0.1163425,-0.1123426,-0.1083427,-0.0923428,-0.0923429,-0.0923430,-0.0923431,-0.0843432,-0.0843433,-0.0843434,-0.0883435,-0.0843436,-0.0843437,-0.0923438,-0.0843439,-0.083440,-0.0763441,-0.0763442,-0.0723443,-0.0763444,-0.0763445,-0.0763446,-0.0763447,-0.0763448,-0.0723449,-0.0683450,-0.063451,-0.0523452,-0.0523453,-0.0483454,-0.0483455,-0.063456,-0.063457,-0.0643458,-0.063459,-0.063460,-0.0523461,-0.0523462,-0.0483463,-0.0483464,-0.0443465,-0.0443466,-0.0443467,-0.0443468,-0.043469,-0.043470,-0.0363471,-0.043472,-0.0363473,-0.0443474,-0.043475,-0.043476,-0.0363477,-0.043478,-0.0363479,-0.0323480,-0.0283481,-0.0283482,-0.0283483,-0.023484,-0.0283485,-0.0283486,-0.0283487,-0.0283488,-0.0283489,-0.023490,-0.023491,-0.023492,-0.0163493,-0.0163494,-0.023495,-0.0283496,-0.0283497,-0.0363498,-0.0363499,-0.0363500,-0.0323501,-0.0283502,-0.0243503,-0.0163504,-0.0163505,-0.0163506,-0.023507,-0.0283508,-0.0363509,-0.043510,-0.0443511,-0.0443512,-0.0443513,-0.0443514,-0.0443515,-0.043516,-0.043517,-0.043518,-0.0323519,-0.0363520,-0.0323521,-0.0283522,-0.0323523,-0.0363524,-0.043525,-0.043526,-0.0483527,-0.0483528,-0.0523529,-0.0523530,-0.0483531,-0.0443532,-0.0443533,-0.0443534,-0.0443535,-0.0443536,-0.0363537,-0.0443538,-0.0443539,-0.043540,-0.0443541,-0.0443542,-0.0483543,-0.0483544,-0.0523545,-0.0483546,-0.0483547,-0.0483548,-0.0443549,-0.0443550,-0.0443551,-0.0523552,-0.0483553,-0.0563554,-0.0563555,-0.0523556,-0.0483557,-0.0483558,-0.0443559,-0.0483560,-0.0483561,-0.0523562,-0.0563563,-0.0563564,-0.0523565,-0.0563566,-0.0483567,-0.0483568,-0.0443569,-0.0483570,-0.0483571,-0.0483572,-0.0483573,-0.0483574,-0.0443575,-0.0443576,-0.0443577,-0.0443578,-0.0443579,-0.0443580,-0.0483581,-0.0483582,-0.0523583,-0.0483584,-0.0523585,-0.0483586,-0.0443587,-0.0443588,-0.0443589,-0.043590,-0.0443591,-0.0443592,-0.0443593,-0.0483594,-0.0483595,-0.0483596,-0.0483597,-0.0443598,-0.0443599,-0.0443600,-0.043601,-0.0443602,-0.0443603,-0.0443604,-0.0443605,-0.0443606,-0.0443607,-0.0443608,-0.0443609,-0.043610,-0.0443611,-0.043612,-0.0443613,-0.043614,-0.0443615,-0.0443616,-0.0483617,-0.0443618,-0.0443619,-0.0443620,-0.0443621,-0.0443622,-0.0443623,-0.0443624,-0.0483625,-0.0483626,-0.0443627,-0.0443628,-0.043629,-0.0363630,-0.0363631,-0.043632,-0.043633,-0.0363634,-0.0443635,-0.0443636,-0.0443637,-0.043638,-0.0443639,-0.043640,-0.0443641,-0.0443642,-0.0443643,-0.0483644,-0.0483645,-0.0443646,-0.0443647,-0.0443648,-0.0443649,-0.0443650,-0.0443651,-0.0443652,-0.0443653,-0.0483654,-0.0483655,-0.0443656,-0.0483657,-0.0483658,-0.0483659,-0.0523660,-0.0563661,-0.0483662,-0.0483663,-0.0443664,-0.043665,-0.0363666,-0.0363667,-0.043668,-0.043669,-0.0443670,-0.0483671,-0.0523672,-0.0483673,-0.0443674,-0.0443675,-0.043676,-0.0443677,-0.043678,-0.0443679,-0.0443680,-0.0443681,-0.043682,-0.043683,-0.043684,-0.0363685,-0.0443686,-0.0443687,-0.0483688,-0.0523689,-0.0523690,-0.0483691,-0.0443692,-0.043693,-0.0363694,-0.0363695,-0.0363696,-0.043697,-0.0443698,-0.0483699,-0.0523700,-0.0483701,-0.0523702,-0.0483703,-0.0483704,-0.0443705,-0.0443706,-0.0443707,-0.0443708,-0.0443709,-0.0443710,-0.0483711,-0.0443712,-0.0483713,-0.0483714,-0.0483715,-0.0483716,-0.0483717,-0.0443718,-0.0523719,-0.0483720,-0.0483721,-0.0483722,-0.0443723,-0.0443724,-0.0443725,-0.0443726,-0.0443727,-0.0443728,-0.0483729,-0.0523730,-0.0523731,-0.0563732,-0.0523733,-0.0523734,-0.0523735,-0.0483736,-0.0523737,-0.0483738,-0.0523739,-0.063740,-0.0563741,-0.063742,-0.0563743,-0.0483744,-0.0483745,-0.0483746,-0.0443747,-0.0443748,-0.0483749,-0.0483750,-0.0523751,-0.0563752,-0.063753,-0.063754,-0.063755,-0.063756,-0.0523757,-0.0523758,-0.0523759,-0.0483760,-0.0483761,-0.0443762,-0.0443763,-0.0443764,-0.0443765,-0.0483766,-0.0523767,-0.063768,-0.063769,-0.063770,-0.063771,-0.0523772,-0.0523773,-0.0523774,-0.0443775,-0.0483776,-0.0483777,-0.0443778,-0.0443779,-0.0443780,-0.0443781,-0.0443782,-0.0443783,-0.0483784,-0.0483785,-0.0523786,-0.0523787,-0.0483788,-0.0483789,-0.0443790,-0.0443791,-0.0443792,-0.0443793,-0.0523794,-0.0523795,-0.0563796,-0.0523797,-0.0483798,-0.0483799,-0.0443800,-0.043801,-0.0443802,-0.0443803,-0.0483804,-0.0523805,-0.0563806,-0.063807,-0.0523808,-0.0483809,-0.0483810,-0.0443811,-0.043812,-0.0443813,-0.043814,-0.043815,-0.0443816,-0.0443817,-0.0483818,-0.0443819,-0.0443820,-0.0443821,-0.0443822,-0.0483823,-0.0523824,-0.0483825,-0.0483826,-0.0443827,-0.0443828,-0.0443829,-0.0443830,-0.0443831,-0.0483832,-0.0483833,-0.0523834,-0.0523835,-0.0523836,-0.0483837,-0.0523838,-0.0483839,-0.0443840,-0.0443841,-0.0443842,-0.0443843,-0.0483844,-0.0523845,-0.0523846,-0.063847,-0.063848,-0.0563849,-0.0523850,-0.0483851,-0.0443852,-0.043853,-0.0363854,-0.0363855,-0.043856,-0.0443857,-0.0483858,-0.0563859,-0.063860,-0.063861,-0.0523862,-0.063863,-0.0563864,-0.0523865,-0.0523866,-0.0483867,-0.0483868,-0.0443869,-0.0443870,-0.0443871,-0.0443872,-0.0443873,-0.0483874,-0.0483875,-0.0523876,-0.0563877,-0.063878,-0.0523879,-0.0483880,-0.0523881,-0.0523882,-0.0523883,-0.0483884,-0.0523885,-0.0483886,-0.0523887,-0.0483888,-0.0483889,-0.0483890,-0.0483891,-0.0523892,-0.0523893,-0.0523894,-0.0563895,-0.063896,-0.0523897,-0.0523898,-0.063899,-0.0563900,-0.063901,-0.063902,-0.063903,-0.0523904,-0.0523905,-0.0443906,-0.0443907,-0.0443908,-0.0443909,-0.0483910,-0.0563911,-0.063912,-0.063913,-0.0643914,-0.063915,-0.063916,-0.063917,-0.0523918,-0.0443919,-0.0523920,-0.0523921,-0.0523922,-0.0523923,-0.0483924,-0.0443925,-0.0483926,-0.0483927,-0.0483928,-0.0523929,-0.0563930,-0.063931,-0.063932,-0.063933,-0.0563934,-0.0523935,-0.0523936,-0.0483937,-0.0483938,-0.0483939,-0.0483940,-0.0523941,-0.0483942,-0.0523943,-0.0483944,-0.0523945,-0.0483946,-0.0523947,-0.0523948,-0.0483949,-0.0523950,-0.0563951,-0.063952,-0.063953,-0.063954,-0.0523955,-0.0483956,-0.0523957,-0.0443958,-0.0443959,-0.0443960,-0.043961,-0.0483962,-0.0483963,-0.0523964,-0.0523965,-0.063966,-0.0523967,-0.0523968,-0.0523969,-0.0523970,-0.0523971,-0.0523972,-0.0523973,-0.0563974,-0.063975,-0.0563976,-0.0563977,-0.0523978,-0.0563979,-0.0523980,-0.063981,-0.063982,-0.063983,-0.063984,-0.063985,-0.0483986,-0.0523987,-0.0523988,-0.0483989,-0.0523990,-0.063991,-0.063992,-0.0563993,-0.063994,-0.0483995,-0.0523996,-0.0483997,-0.0443998,-0.0443999,-0.0444000,-0.0444001,-0.0444002,-0.0444003,-0.0484004,-0.0524005,-0.0524006,-0.064007,-0.064008,-0.0524009,-0.064010,-0.0524011,-0.0484012,-0.0444013,-0.044014,-0.0364015,-0.0444016,-0.0444017,-0.0484018,-0.0524019,-0.064020,-0.064021,-0.064022,-0.0524023,-0.0524024,-0.0484025,-0.0484026,-0.0444027,-0.0484028,-0.0444029,-0.0444030,-0.0444031,-0.0444032,-0.044033,-0.044034,-0.0444035,-0.0444036,-0.0524037,-0.0524038,-0.0524039,-0.0524040,-0.0444041,-0.0444042,-0.044043,-0.0444044,-0.0444045,-0.0444046,-0.0484047,-0.0484048,-0.0484049,-0.0484050,-0.0444051,-0.044052,-0.044053,-0.044054,-0.0444055,-0.044056,-0.0484057,-0.0484058,-0.0524059,-0.0524060,-0.0524061,-0.0484062,-0.0484063,-0.0444064,-0.0444065,-0.0444066,-0.0444067,-0.0444068,-0.0444069,-0.0484070,-0.0484071,-0.0524072,-0.0484073,-0.0524074,-0.0524075,-0.0564076,-0.0524077,-0.0524078,-0.0524079,-0.0524080,-0.0524081,-0.0484082,-0.0444083,-0.0484084,-0.0444085,-0.0444086,-0.0484087,-0.0484088,-0.064089,-0.064090,-0.064091,-0.064092,-0.0564093,-0.0524094,-0.0444095,-0.0484096,-0.0484097,-0.0484098,-0.0484099,-0.0484100,-0.0524101,-0.0484102,-0.0484103,-0.0484104,-0.0484105,-0.0484106,-0.0524107,-0.0524108,-0.0524109,-0.0524110,-0.0484111,-0.0484112,-0.0444113,-0.0484114,-0.0484115,-0.0524116,-0.0524117,-0.0564118,-0.0524119,-0.0524120,-0.0524121,-0.0524122,-0.0524123,-0.0484124,-0.0524125,-0.0524126,-0.0524127,-0.0524128,-0.0524129,-0.0484130,-0.0484131,-0.0484132,-0.0524133,-0.0524134,-0.0564135,-0.0524136,-0.0524137,-0.0524138,-0.0444139,-0.0484140,-0.0444141,-0.0484142,-0.0444143,-0.0484144,-0.0484145,-0.0484146,-0.0444147,-0.0444148,-0.0444149,-0.044150,-0.0444151,-0.0444152,-0.0524153,-0.064154,-0.064155,-0.0564156,-0.0524157,-0.0524158,-0.0444159,-0.0444160,-0.0444161,-0.0444162,-0.0444163,-0.0484164,-0.0484165,-0.0484166,-0.0524167,-0.0564168,-0.0524169,-0.0484170,-0.0524171,-0.0484172,-0.0524173,-0.0484174,-0.0484175,-0.0444176,-0.0444177,-0.0444178,-0.0444179,-0.0444180,-0.0444181,-0.0484182,-0.0484183,-0.0524184,-0.0524185,-0.0484186,-0.0444187,-0.0444188,-0.0444189,-0.0444190,-0.0444191,-0.0444192,-0.0484193,-0.0484194,-0.0524195,-0.064196,-0.064197,-0.0524198,-0.0484199,-0.0444200,-0.0444201,-0.044202,-0.0444203,-0.0444204,-0.0444205,-0.0444206,-0.0524207,-0.0524208,-0.0524209,-0.0484210,-0.0484211,-0.0444212,-0.0444213,-0.0444214,-0.0444215,-0.0484216,-0.0444217,-0.0484218,-0.0484219,-0.0484220,-0.0484221,-0.0484222,-0.0524223,-0.0524224,-0.0524225,-0.0484226,-0.0484227,-0.0444228,-0.0484229,-0.0444230,-0.0484231,-0.0524232,-0.0524233,-0.0524234,-0.0524235,-0.0524236,-0.0444237,-0.0484238,-0.0444239,-0.0444240,-0.0364241,-0.0444242,-0.0444243,-0.0444244,-0.0444245,-0.0484246,-0.0524247,-0.0564248,-0.0564249,-0.064250,-0.0564251,-0.0524252,-0.0484253,-0.0444254,-0.044255,-0.0364256,-0.0364257,-0.044258,-0.0444259,-0.0524260,-0.0564261,-0.0524262,-0.064263,-0.0524264,-0.0484265,-0.0484266,-0.0444267,-0.0484268,-0.0484269,-0.0484270,-0.0524271,-0.0484272,-0.0444273,-0.0444274,-0.0444275,-0.0444276,-0.0444277,-0.0444278,-0.0484279,-0.0524280,-0.0484281,-0.0524282,-0.0484283,-0.0484284,-0.0444285,-0.0484286,-0.0444287,-0.0444288,-0.0444289,-0.0484290,-0.0444291,-0.044292,-0.0444293,-0.044294,-0.0444295,-0.0444296,-0.0444297,-0.0444298,-0.0524299,-0.064300,-0.064301,-0.064302,-0.064303,-0.0484304,-0.0484305,-0.0444306,-0.0444307,-0.0364308,-0.044309,-0.0444310,-0.0484311,-0.0524312,-0.0524313,-0.064314,-0.0564315,-0.0484316,-0.0484317,-0.0484318,-0.0444319,-0.0444320,-0.0484321,-0.0444322,-0.0444323,-0.0444324,-0.0444325,-0.0444326,-0.0444327,-0.0444328,-0.0444329,-0.0524330,-0.0524331,-0.0484332,-0.0484333,-0.0444334,-0.0444335,-0.0444336,-0.0444337,-0.0444338,-0.0484339,-0.0524340,-0.0524341,-0.0524342,-0.0524343,-0.0524344,-0.0444345,-0.0444346,-0.0444347,-0.0444348,-0.0444349,-0.0444350,-0.0444351,-0.0484352,-0.0484353,-0.0524354,-0.0524355,-0.0524356,-0.0524357,-0.0484358,-0.0484359,-0.0444360,-0.0364361,-0.0324362,-0.0324363,-0.0284364,-0.0364365,-0.0364366,-0.0444367,-0.0444368,-0.0484369,-0.0484370,-0.0444371,-0.0444372,-0.0444373,-0.0444374,-0.0444375,-0.0444376,-0.0484377,-0.0444378,-0.0444379,-0.0444380,-0.0364381,-0.044382,-0.0364383,-0.044384,-0.0444385,-0.0444386,-0.0444387,-0.0444388,-0.0444389,-0.0444390,-0.0444391,-0.0444392,-0.044393,-0.0444394,-0.0484395,-0.0444396,-0.0484397,-0.0444398,-0.044399,-0.0364400,-0.0364401,-0.0364402,-0.0324403,-0.044404,-0.0444405,-0.0444406,-0.0484407,-0.0524408,-0.0524409,-0.0484410,-0.0444411,-0.0444412,-0.0444413,-0.0364414,-0.0364415,-0.0364416,-0.0364417,-0.0364418,-0.0444419,-0.044420,-0.044421,-0.0444422,-0.0444423,-0.0444424,-0.0444425,-0.0484426,-0.0484427,-0.0484428,-0.0484429,-0.0444430,-0.0444431,-0.0364432,-0.0364433,-0.0324434,-0.0364435,-0.0364436,-0.0444437,-0.0444438,-0.0444439,-0.0484440,-0.0524441,-0.0444442,-0.0484443,-0.0484444,-0.0484445,-0.0524446,-0.0524447,-0.0484448,-0.0484449,-0.0444450,-0.044451,-0.044452,-0.0364453,-0.044454,-0.044455,-0.0444456,-0.0484457,-0.0524458,-0.0524459,-0.0484460,-0.0484461,-0.0444462,-0.0444463,-0.0444464,-0.0444465,-0.044466,-0.0364467,-0.044468,-0.0364469,-0.0364470,-0.0364471,-0.044472,-0.044473,-0.0364474,-0.0444475,-0.044476,-0.044477,-0.0364478,-0.0364479,-0.0364480,-0.044481,-0.0444482,-0.044483,-0.0444484,-0.0444485,-0.0444486,-0.044487,-0.0364488,-0.0364489,-0.0364490,-0.0364491,-0.044492,-0.0364493,-0.0364494,-0.0324495,-0.0364496,-0.0284497,-0.0324498,-0.0364499,-0.0364500,-0.044501,-0.0444502,-0.044503,-0.0364504,-0.0364505,-0.0284506,-0.024507,-0.024508,-0.0164509,-0.024510,-0.024511,-0.0284512,-0.0324513,-0.0324514,-0.0364515,-0.0324516,-0.0284517,-0.0284518,-0.0284519,-0.024520,-0.024521,-0.0284522,-0.0164523,-0.0284524,-0.024525,-0.024526,-0.0284527,-0.0284528,-0.0284529,-0.0284530,-0.0284531,-0.0284532,-0.0284533,-0.0284534,-0.0284535,-0.0244536,-0.0244537,-0.024538,-0.0124539,-0.0164540,-0.0164541,-0.024542,-0.024543,-0.0284544,-0.024545,-0.0284546,-0.024547,-0.0164548,-0.0124549,-0.0124550,-0.0124551,-0.024552,-0.0284553,-0.0284554,-0.0284555,-0.0284556,-0.0244557,-0.0164558,-0.0124559,-0.0124560,-0.0124561,-0.0124562,-0.0124563,-0.0124564,-0.0164565,-0.0164566,-0.0164567,-0.024568,-0.024569,-0.024570,-0.0284571,-0.024572,-0.024573,-0.024574,-0.0164575,-0.0124576,-0.0124577,-0.0084578,-0.0124579,-0.0164580,-0.024581,-0.0284582,-0.0284583,-0.0284584,-0.0284585,-0.0284586,-0.024587,-0.0164588,-0.024589,-0.0164590,-0.024591,-0.0164592,-0.024593,-0.0244594,-0.024595,-0.024596,-0.0284597,-0.0284598,-0.0284599,-0.0244600,-0.0244601,-0.024602,-0.0164603,-0.0124604,-0.0164605,-0.0164606,-0.024607,-0.0284608,-0.0244609,-0.0284610,-0.0284611,-0.024612,-0.024613,-0.024614,-0.0164615,-0.0164616,-0.0244617,-0.024618,-0.0284619,-0.0284620,-0.0284621,-0.024622,-0.024623,-0.0124624,-0.024625,-0.024626,-0.024627,-0.024628,-0.0284629,-0.0284630,-0.0284631,-0.0284632,-0.0284633,-0.0284634,-0.0284635,-0.0284636,-0.0284637,-0.0324638,-0.0284639,-0.0284640,-0.024641,-0.024642,-0.024643,-0.024644,-0.0244645,-0.0284646,-0.0284647,-0.0284648,-0.0324649,-0.0284650,-0.0284651,-0.024652,-0.024653,-0.0124654,-0.0124655,-0.0084656,-0.0124657,-0.0164658,-0.024659,-0.0284660,-0.0284661,-0.0284662,-0.0284663,-0.0244664,-0.0164665,-0.0164666,-0.0164667,-0.0164668,-0.024669,-0.0244670,-0.024671,-0.0284672,-0.0284673,-0.0244674,-0.024675,-0.024676,-0.0164677,-0.0284678,-0.024679,-0.0284680,-0.0284681,-0.0244682,-0.0164683,-0.0164684,-0.0164685,-0.0164686,-0.024687,-0.0244688,-0.0284689,-0.024690,-0.0244691,-0.024692,-0.0164693,-0.0124694,-0.0124695,-0.0124696,-0.0124697,-0.024698,-0.024699,-0.0284700,-0.024701,-0.0284702,-0.0284703,-0.0244704,-0.0244705,-0.024706,-0.024707,-0.024708,-0.024709,-0.0164710,-0.024711,-0.024712,-0.0164713,-0.0284714,-0.0284715,-0.0284716,-0.0284717,-0.0244718,-0.0164719,-0.024720,-0.0164721,-0.024722,-0.0244723,-0.0284724,-0.0284725,-0.0284726,-0.0284727,-0.0284728,-0.0284729,-0.0284730,-0.024731,-0.0244732,-0.0164733,-0.024734,-0.0284735,-0.0284736,-0.024737,-0.0284738,-0.0284739,-0.0284740,-0.0324741,-0.0324742,-0.0324743,-0.0324744,-0.0364745,-0.0284746,-0.0284747,-0.024748,-0.0164749,-0.0124750,-0.0164751,-0.024752,-0.024753,-0.0284754,-0.0324755,-0.0324756,-0.0364757,-0.0364758,-0.0284759,-0.0284760,-0.0284761,-0.0244762,-0.0244763,-0.0244764,-0.0284765,-0.0284766,-0.0284767,-0.0284768,-0.0284769,-0.0284770,-0.024771,-0.0284772,-0.0284773,-0.0284774,-0.0324775,-0.0364776,-0.0364777,-0.0364778,-0.0364779,-0.0284780,-0.0284781,-0.024782,-0.024783,-0.024784,-0.024785,-0.0244786,-0.0284787,-0.0284788,-0.0284789,-0.0284790,-0.0284791,-0.0284792,-0.0284793,-0.0364794,-0.0364795,-0.0364796,-0.0364797,-0.0284798,-0.0164799,-0.0124800,-0.0084801,-0.0124802,-0.0084803,-0.0164804,-0.0244805,-0.0284806,-0.0364807,-0.0284808,-0.0364809,-0.0284810,-0.0284811,-0.0244812,-0.0284813,-0.0284814,-0.0284815,-0.0284816,-0.0284817,-0.024818,-0.0284819,-0.0284820,-0.0284821,-0.0284822,-0.0284823,-0.0284824,-0.0284825,-0.0284826,-0.0284827,-0.0284828,-0.0244829,-0.0284830,-0.0284831,-0.0284832,-0.0284833,-0.0284834,-0.0284835,-0.0244836,-0.0284837,-0.024838,-0.024839,-0.024840,-0.0164841,-0.024842,-0.024843,-0.0284844,-0.0284845,-0.0284846,-0.0324847,-0.0364848,-0.0364849,-0.0444850,-0.044851,-0.0364852,-0.0324853,-0.0284854,-0.0284855,-0.024856,-0.0284857,-0.0284858,-0.0284859,-0.0324860,-0.0364861,-0.0364862,-0.044863,-0.0364864,-0.0364865,-0.0364866,-0.0324867,-0.0364868,-0.0324869,-0.0324870,-0.0284871,-0.0284872,-0.0284873,-0.0284874,-0.0284875,-0.0284876,-0.0284877,-0.0284878,-0.0284879,-0.0324880,-0.0284881,-0.0364882,-0.0364883,-0.0364884,-0.0324885,-0.0324886,-0.0284887,-0.0284888,-0.0284889,-0.0284890,-0.0284891,-0.0284892,-0.0284893,-0.0284894,-0.0284895,-0.0244896,-0.024897,-0.024898,-0.024899,-0.0284900,-0.0364901,-0.044902,-0.044903,-0.0444904,-0.0364905,-0.0284906,-0.0244907,-0.0164908,-0.0124909,-0.0124910,-0.0164911,-0.024912,-0.0244913,-0.024914,-0.0284915,-0.0284916,-0.0244917,-0.0284918,-0.0284919,-0.0364920,-0.0284921,-0.0364922,-0.0284923,-0.0284924,-0.0164925,-0.0164926,-0.0124927,-0.0124928,-0.0164929,-0.024930,-0.0284931,-0.0284932,-0.0324933,-0.0284934,-0.0284935,-0.0244936,-0.0284937,-0.0244938,-0.0284939,-0.0284940,-0.0284941,-0.0284942,-0.0284943,-0.0284944,-0.0284945,-0.0284946,-0.0284947,-0.024948,-0.0284949,-0.0284950,-0.0284951,-0.0324952,-0.0364953,-0.0364954,-0.0364955,-0.0364956,-0.0364957,-0.0364958,-0.0364959,-0.0324960,-0.0284961,-0.0284962,-0.0284963,-0.0284964,-0.0364965,-0.0364966,-0.044967,-0.0444968,-0.0444969,-0.0364970,-0.044971,-0.0324972,-0.0324973,-0.0324974,-0.0364975,-0.0284976,-0.0364977,-0.0324978,-0.0364979,-0.0364980,-0.0324981,-0.0364982,-0.0324983,-0.0284984,-0.0324985,-0.0324986,-0.0284987,-0.0284988,-0.0284989,-0.0244990,-0.0324991,-0.0324992,-0.0364993,-0.044994,-0.0444995,-0.0364996,-0.044997,-0.0364998,-0.0324999,-0.0285000,-0.0285001,-0.0285002,-0.0285003,-0.0285004,-0.0285005,-0.0365006,-0.045007,-0.0445008,-0.0445009,-0.0445010,-0.0445011,-0.0365012,-0.0285013,-0.025014,-0.0165015,-0.0165016,-0.0165017,-0.0245018,-0.0285019,-0.0285020,-0.0285021,-0.0285022,-0.0285023,-0.025024,-0.025025,-0.025026,-0.025027,-0.0285028,-0.0285029,-0.0285030,-0.0285031,-0.0245032,-0.0285033,-0.0165034,-0.0285035,-0.0285036,-0.0285037,-0.0325038,-0.0325039,-0.0285040,-0.025041,-0.0245042,-0.0165043,-0.025044,-0.025045,-0.0285046,-0.0325047,-0.0365048,-0.0365049,-0.0365050,-0.0325051,-0.0245052,-0.025053,-0.0165054,-0.0165055,-0.025056,-0.025057,-0.0285058,-0.0285059,-0.0325060,-0.0365061,-0.0365062,-0.0365063,-0.0325064,-0.0325065,-0.0285066,-0.0285067,-0.0285068,-0.0285069,-0.0245070,-0.0285071,-0.0285072,-0.0325073,-0.0365074,-0.0365075,-0.0365076,-0.0365077,-0.0365078,-0.0365079,-0.0365080,-0.0365081,-0.0365082,-0.0325083,-0.0365084,-0.0365085,-0.0285086,-0.0365087,-0.0365088,-0.0365089,-0.0365090,-0.0445091,-0.045092,-0.045093,-0.0445094,-0.0445095,-0.0365096,-0.0125097,-0.0285098,-0.0365099,-0.0365100,-0.0365101,-0.0325102,-0.0245103,-0.025104,-0.0565105,0.0125106,0.0045107,0.0245108,0.0365109,0.0125110,0.025111,0.0365112,0.0525113,0.0885114,0.1245115,0.1525116,0.1765117,0.1845118,0.1845119,0.185120,0.1685121,0.165122,0.145123,0.1285124,0.1165125,0.0965126,0.0845127,0.085128,0.0725129,0.0645130,0.065131,0.0525132,0.0445133,0.0245134,0.0165135,0.0045136,-0.0085137,-0.0165138,-0.0285139,-0.0365140,-0.0445141,-0.0525142,-0.0645143,-0.0765144,-0.085145,-0.085146,-0.085147,-0.0845148,-0.0845149,-0.0925150,-0.0925151,-0.1125152,-0.125153,-0.1285154,-0.1365155,-0.145156,-0.145157,-0.1325158,-0.1325159,-0.1325160,-0.1365161,-0.1325162,-0.1445163,-0.1445164,-0.1485165,-0.1485166,-0.1445167,-0.1445168,-0.145169,-0.145170,-0.1365171,-0.1365172,-0.1325173,-0.1325174,-0.1325175,-0.1285176,-0.1285177,-0.1245178,-0.125179,-0.125180,-0.125181,-0.1165182,-0.1165183,-0.1125184,-0.15185,-0.0925186,-0.0885187,-0.0845188,-0.0765189,-0.0765190,-0.0765191,-0.0765192,-0.0725193,-0.0685194,-0.0685195,-0.0645196,-0.065197,-0.0525198,-0.0525199,-0.0445200,-0.0445201,-0.0365202,-0.0365203,-0.0325204,-0.0365205,-0.0325206,-0.0365207,-0.0365208,-0.0365209,-0.0365210,-0.0285211,-0.0285212,-0.0285213,-0.0285214,-0.0325215,-0.0365216,-0.045217,-0.0365218,-0.0445219,-0.0365220,-0.045221,-0.045222,-0.0365223,-0.045224,-0.0365225,-0.0365226,-0.0365227,-0.045228,-0.045229,-0.0445230,-0.0445231,-0.0445232,-0.0445233,-0.0525234,-0.0525235,-0.0525236,-0.0525237,-0.0485238,-0.0445239,-0.0485240,-0.0485241,-0.0485242,-0.0445243,-0.0485244,-0.0445245,-0.0485246,-0.0485247,-0.0525248,-0.065249,-0.065250,-0.065251,-0.0685252,-0.0645253,-0.065254,-0.0565255,-0.0485256,-0.0445257,-0.0445258,-0.0445259,-0.0485260,-0.0525261,-0.0565262,-0.065263,-0.065264,-0.0565265,-0.0525266,-0.0525267,-0.065268,-0.065269,-0.0645270,-0.0685271,-0.065272,-0.065273,-0.0565274,-0.0485275,-0.0485276,-0.0445277,-0.0445278,-0.0525279,-0.065280,-0.065281,-0.065282,-0.065283,-0.0525284,-0.0525285,-0.0525286,-0.0485287,-0.0565288,-0.065289,-0.0565290,-0.065291,-0.0525292,-0.0525293,-0.0445294,-0.0445295,-0.045296,-0.0445297,-0.0445298,-0.0525299,-0.0525300,-0.065301,-0.065302,-0.065303,-0.065304,-0.0525305,-0.0525306,-0.0485307,-0.0445308,-0.0445309,-0.045310,-0.0445311,-0.0445312,-0.0445313,-0.0485314,-0.0525315,-0.0485316,-0.0525317,-0.0485318,-0.0485319,-0.0485320,-0.0485321,-0.0525322,-0.0525323,-0.0525324,-0.0525325,-0.0485326,-0.0525327,-0.0525328,-0.0525329,-0.0525330,-0.0525331,-0.0525332,-0.0525333,-0.0485334,-0.0485335,-0.0445336,-0.0485337,-0.0485338,-0.0485339,-0.0565340,-0.065341,-0.065342,-0.065343,-0.065344,-0.0525345,-0.0485346,-0.0445347,-0.045348,-0.045349,-0.0365350,-0.045351,-0.0365352,-0.0445353,-0.0485354,-0.0485355,-0.0565356,-0.0525357,-0.0525358,-0.065359,-0.0565360,-0.0485361,-0.0485362,-0.0445363,-0.0485364,-0.0485365,-0.0485366,-0.0525367,-0.065368,-0.065369,-0.0525370,-0.0525371,-0.0525372,-0.0485373,-0.0485374,-0.0525375,-0.0565376,-0.0565377,-0.065378,-0.065379,-0.0565380,-0.0565381,-0.0525382,-0.0485383,-0.0525384,-0.0485385,-0.0525386,-0.0445387,-0.0445388,-0.0485389,-0.0445390,-0.0445391,-0.0445392,-0.0485393,-0.0525394,-0.065395,-0.065396,-0.0645397,-0.0645398,-0.0525399,-0.0485400,-0.0445401,-0.045402,-0.045403,-0.045404,-0.0445405,-0.0525406,-0.065407,-0.065408,-0.065409,-0.065410,-0.065411,-0.0525412,-0.065413,-0.0565414,-0.065415,-0.0525416,-0.0525417,-0.0525418,-0.0525419,-0.0525420,-0.0485421,-0.0525422,-0.0525423,-0.0525424,-0.0565425,-0.065426,-0.065427,-0.065428,-0.065429,-0.065430,-0.065431,-0.065432,-0.065433,-0.065434,-0.0525435,-0.0525436,-0.0525437,-0.065438,-0.0525439,-0.0525440,-0.0525441,-0.0525442,-0.0525443,-0.0485444,-0.065445,-0.065446,-0.065447,-0.0685448,-0.0685449,-0.0685450,-0.0645451,-0.065452,-0.0525453,-0.0525454,-0.0485455,-0.0565456,-0.0525457,-0.065458,-0.065459,-0.0685460,-0.065461,-0.065462,-0.065463,-0.0565464,-0.0525465,-0.0525466,-0.065467,-0.065468,-0.065469,-0.0565470,-0.065471,-0.065472,-0.065473,-0.065474,-0.065475,-0.065476,-0.065477,-0.065478,-0.0525479,-0.0525480,-0.0525481,-0.0525482,-0.0525483,-0.065484,-0.065485,-0.065486,-0.065487,-0.065488,-0.0565489,-0.065490,-0.0525491,-0.0525492,-0.0525493,-0.0485494,-0.0445495,-0.0445496,-0.0445497,-0.0445498,-0.0445499,-0.0485500,-0.0485501,-0.065502,-0.065503,-0.065504,-0.0525505,-0.0485506,-0.0445507,-0.0445508,-0.045509,-0.0445510,-0.0445511,-0.0525512,-0.0525513,-0.065514,-0.0525515,-0.065516,-0.0525517,-0.0485518,-0.0445519,-0.0445520,-0.0445521,-0.0485522,-0.0485523,-0.0445524,-0.0485525,-0.0485526,-0.0445527,-0.0445528,-0.0445529,-0.0485530,-0.0445531,-0.0485532,-0.0445533,-0.0445534,-0.0445535,-0.0445536,-0.045537,-0.0445538,-0.0485539,-0.0525540,-0.0525541,-0.0565542,-0.0565543,-0.0525544,-0.0525545,-0.0485546,-0.0445547,-0.0445548,-0.045549,-0.0445550,-0.0445551,-0.0525552,-0.0525553,-0.065554,-0.0645555,-0.0645556,-0.065557,-0.065558,-0.0485559,-0.0485560,-0.0485561,-0.0445562,-0.0525563,-0.0485564,-0.0525565,-0.065566,-0.0525567,-0.0525568,-0.0485569,-0.0525570,-0.0525571,-0.0525572,-0.0525573,-0.0565574,-0.0525575,-0.0525576,-0.0525577,-0.0485578,-0.0485579,-0.0485580,-0.0525581,-0.065582,-0.065583,-0.065584,-0.065585,-0.065586,-0.065587,-0.0565588,-0.0485589,-0.0485590,-0.0525591,-0.0565592,-0.065593,-0.065594,-0.065595,-0.065596,-0.065597,-0.065598,-0.065599,-0.065600,-0.0685601,-0.0645602,-0.0645603,-0.0645604,-0.0685605,-0.065606,-0.065607,-0.065608,-0.0645609,-0.065610,-0.065611,-0.065612,-0.065613,-0.065614,-0.065615,-0.065616,-0.0685617,-0.0685618,-0.0685619,-0.0725620,-0.0685621,-0.0645622,-0.0645623,-0.065624,-0.065625,-0.065626,-0.065627,-0.0685628,-0.0685629,-0.0725630,-0.0725631,-0.0725632,-0.0685633,-0.0685634,-0.0685635,-0.0765636,-0.0725637,-0.0725638,-0.0765639,-0.0725640,-0.0685641,-0.065642,-0.0645643,-0.0645644,-0.0645645,-0.0685646,-0.0685647,-0.0685648,-0.0765649,-0.0725650,-0.0725651,-0.0725652,-0.0685653,-0.0685654,-0.0685655,-0.0685656,-0.0725657,-0.0725658,-0.0725659,-0.0685660,-0.0765661,-0.0765662,-0.0685663,-0.0685664,-0.0685665,-0.0685666,-0.0645667,-0.0685668,-0.0685669,-0.0765670,-0.0725671,-0.0765672,-0.0725673,-0.0685674,-0.0685675,-0.0645676,-0.065677,-0.065678,-0.065679,-0.0645680,-0.065681,-0.0645682,-0.0645683,-0.065684,-0.065685,-0.065686,-0.0645687,-0.0685688,-0.0765689,-0.0765690,-0.085691,-0.0765692,-0.0765693,-0.0685694,-0.065695,-0.065696,-0.065697,-0.0685698,-0.0685699,-0.0725700,-0.0765701,-0.0765702,-0.0725703,-0.0725704,-0.0685705,-0.0685706,-0.0685707,-0.0685708,-0.0685709,-0.0685710,-0.0685711,-0.0685712,-0.0685713,-0.0725714,-0.0685715,-0.0685716,-0.0725717,-0.0685718,-0.0685719,-0.0645720,-0.0645721,-0.065722,-0.065723,-0.0685724,-0.0685725,-0.0725726,-0.0765727,-0.0765728,-0.085729,-0.085730,-0.0765731,-0.085732,-0.0765733,-0.0725734,-0.0765735,-0.0765736,-0.0725737,-0.0725738,-0.0725739,-0.0765740,-0.085741,-0.0845742,-0.0845743,-0.0925744,-0.0925745,-0.0925746,-0.085747,-0.085748,-0.0765749,-0.0725750,-0.0765751,-0.0725752,-0.0765753,-0.0765754,-0.085755,-0.0845756,-0.085757,-0.0845758,-0.0845759,-0.085760,-0.0845761,-0.0925762,-0.085763,-0.0845764,-0.0845765,-0.0845766,-0.0845767,-0.085768,-0.0765769,-0.0765770,-0.0765771,-0.0765772,-0.0765773,-0.0765774,-0.085775,-0.0845776,-0.0845777,-0.0925778,-0.0885779,-0.0925780,-0.0925781,-0.0925782,-0.0845783,-0.0845784,-0.0845785,-0.085786,-0.085787,-0.085788,-0.085789,-0.0765790,-0.0765791,-0.0765792,-0.0765793,-0.0845794,-0.0845795,-0.0925796,-0.0925797,-0.0925798,-0.0925799,-0.0845800,-0.0765801,-0.0765802,-0.0725803,-0.0685804,-0.0765805,-0.0765806,-0.085807,-0.085808,-0.085809,-0.0765810,-0.0765811,-0.0765812,-0.0765813,-0.0765814,-0.0845815,-0.0845816,-0.085817,-0.0845818,-0.085819,-0.0765820,-0.0685821,-0.0685822,-0.0685823,-0.0725824,-0.0725825,-0.0765826,-0.0765827,-0.0725828,-0.0725829,-0.0725830,-0.0725831,-0.0725832,-0.0765833,-0.085834,-0.085835,-0.0845836,-0.085837,-0.085838,-0.0765839,-0.0765840,-0.0765841,-0.0725842,-0.0725843,-0.0725844,-0.0765845,-0.0765846,-0.085847,-0.0845848,-0.085849,-0.0845850,-0.0845851,-0.085852,-0.085853,-0.0765854,-0.0725855,-0.0725856,-0.0685857,-0.0685858,-0.0725859,-0.0765860,-0.0765861,-0.0765862,-0.0765863,-0.0725864,-0.0765865,-0.0725866,-0.0765867,-0.0765868,-0.085869,-0.0765870,-0.085871,-0.085872,-0.0845873,-0.085874,-0.085875,-0.0845876,-0.085877,-0.085878,-0.0765879,-0.0765880,-0.0765881,-0.0725882,-0.0725883,-0.0725884,-0.0765885,-0.085886,-0.085887,-0.0845888,-0.0885889,-0.0885890,-0.0845891,-0.085892,-0.085893,-0.0765894,-0.0725895,-0.0685896,-0.0645897,-0.065898,-0.0645899,-0.0685900,-0.0685901,-0.0765902,-0.085903,-0.0765904,-0.085905,-0.0765906,-0.0765907,-0.0685908,-0.0685909,-0.065910,-0.0685911,-0.0645912,-0.0685913,-0.0725914,-0.0725915,-0.0725916,-0.0685917,-0.0685918,-0.0645919,-0.0685920,-0.0685921,-0.0725922,-0.0765923,-0.0765924,-0.0765925,-0.0685926,-0.0685927,-0.0645928,-0.0645929,-0.065930,-0.0685931,-0.0685932,-0.0685933,-0.0685934,-0.065935,-0.065936,-0.065937,-0.065938,-0.0645939,-0.0685940,-0.0765941,-0.085942,-0.085943,-0.0765944,-0.0685945,-0.065946,-0.0565947,-0.0525948,-0.0525949,-0.065950,-0.065951,-0.0685952,-0.0685953,-0.0765954,-0.0765955,-0.0765956,-0.0685957,-0.0725958,-0.0685959,-0.0685960,-0.0685961,-0.0685962,-0.0685963,-0.0685964,-0.0685965,-0.0685966,-0.0725967,-0.0765968,-0.0725969,-0.0765970,-0.0725971,-0.0685972,-0.0725973,-0.0725974,-0.0725975,-0.0725976,-0.0725977,-0.0765978,-0.0765979,-0.0765980,-0.0765981,-0.0765982,-0.0765983,-0.085984,-0.0765985,-0.0765986,-0.0765987,-0.0765988,-0.0685989,-0.0725990,-0.0725991,-0.0765992,-0.0845993,-0.0845994,-0.0845995,-0.085996,-0.085997,-0.0765998,-0.0765999,-0.0686000,-0.0726001,-0.0726002,-0.0726003,-0.0766004,-0.086005,-0.0766006,-0.0766007,-0.0766008,-0.0766009,-0.0766010,-0.0686011,-0.0766012,-0.0726013,-0.0686014,-0.0686015,-0.0686016,-0.0766017,-0.0726018,-0.0766019,-0.0766020,-0.086021,-0.086022,-0.0766023,-0.0766024,-0.0726025,-0.0686026,-0.0686027,-0.0686028,-0.0686029,-0.0726030,-0.0726031,-0.0686032,-0.0686033,-0.0686034,-0.0686035,-0.0686036,-0.0686037,-0.0646038,-0.0686039,-0.0686040,-0.066041,-0.0526042,-0.0486043,-0.0486044,-0.0526045,-0.0526046,-0.0646047,-0.0686048,-0.0726049,-0.0766050,-0.0686051,-0.0646052,-0.066053,-0.066054,-0.0526055,-0.066056,-0.066057,-0.0646058,-0.0646059,-0.0646060,-0.0686061,-0.066062,-0.066063,-0.066064,-0.066065,-0.0646066,-0.0686067,-0.0686068,-0.0686069,-0.066070,-0.066071,-0.066072,-0.0566073,-0.066074,-0.066075,-0.066076,-0.066077,-0.066078,-0.066079,-0.066080,-0.066081,-0.066082,-0.0526083,-0.066084,-0.066085,-0.066086,-0.066087,-0.066088,-0.0646089,-0.0646090,-0.0646091,-0.0686092,-0.0646093,-0.066094,-0.066095,-0.066096,-0.066097,-0.066098,-0.0646099,-0.0686100,-0.0686101,-0.0726102,-0.0646103,-0.0646104,-0.066105,-0.066106,-0.066107,-0.066108,-0.066109,-0.0686110,-0.0686111,-0.0726112,-0.0726113,-0.0686114,-0.0686115,-0.0686116,-0.0646117,-0.0686118,-0.0646119,-0.066120,-0.066121,-0.0646122,-0.0566123,-0.066124,-0.066125,-0.066126,-0.0646127,-0.0686128,-0.0686129,-0.0686130,-0.0686131,-0.0646132,-0.0646133,-0.066134,-0.066135,-0.066136,-0.0646137,-0.066138,-0.066139,-0.0646140,-0.066141,-0.066142,-0.066143,-0.0646144,-0.066145,-0.0646146,-0.0646147,-0.0646148,-0.066149,-0.066150,-0.066151,-0.066152,-0.066153,-0.0686154,-0.0646155,-0.0646156,-0.066157,-0.066158,-0.0486159,-0.0526160,-0.0486161,-0.066162,-0.0646163,-0.0726164,-0.0726165,-0.0766166,-0.0726167,-0.0686168,-0.066169,-0.066170,-0.066171,-0.0526172,-0.0566173,-0.0566174,-0.066175,-0.066176,-0.066177,-0.066178,-0.066179,-0.066180,-0.0646181,-0.066182,-0.0646183,-0.0686184,-0.066185,-0.0566186,-0.0486187,-0.0446188,-0.0446189,-0.0446190,-0.0486191,-0.0486192,-0.066193,-0.066194,-0.0646195,-0.0686196,-0.0646197,-0.0686198,-0.066199,-0.066200,-0.066201,-0.066202,-0.066203,-0.066204,-0.0646205,-0.0686206,-0.0686207,-0.066208,-0.0646209,-0.066210,-0.066211,-0.0566212,-0.0566213,-0.066214,-0.066215,-0.066216,-0.066217,-0.0646218,-0.0566219,-0.066220,-0.066221,-0.066222,-0.066223,-0.066224,-0.066225,-0.066226,-0.066227,-0.0526228,-0.0526229,-0.0486230,-0.0486231,-0.0486232,-0.0566233,-0.066234,-0.0646235,-0.0686236,-0.0646237,-0.0726238,-0.0686239,-0.066240,-0.0566241,-0.066242,-0.066243,-0.0566244,-0.066245,-0.066246,-0.066247,-0.066248,-0.066249,-0.066250,-0.066251,-0.0526252,-0.066253,-0.066254,-0.0646255,-0.066256,-0.066257,-0.066258,-0.066259,-0.066260,-0.0566261,-0.066262,-0.066263,-0.0566264,-0.066265,-0.0526266,-0.0486267,-0.0526268,-0.0526269,-0.0526270,-0.066271,-0.066272,-0.066273,-0.0646274,-0.066275,-0.066276,-0.066277,-0.066278,-0.066279,-0.0526280,-0.0526281,-0.0526282,-0.0446283,-0.0446284,-0.0446285,-0.0446286,-0.0486287,-0.0526288,-0.066289,-0.0686290,-0.0646291,-0.0646292,-0.066293,-0.066294,-0.0526295,-0.0486296,-0.0446297,-0.0446298,-0.0486299,-0.0486300,-0.0486301,-0.0486302,-0.0526303,-0.0446304,-0.0446305,-0.0446306,-0.0526307,-0.0526308,-0.0566309,-0.066310,-0.066311,-0.066312,-0.0526313,-0.0526314,-0.0486315,-0.0486316,-0.0446317,-0.0446318,-0.0446319,-0.0446320,-0.0446321,-0.0486322,-0.0486323,-0.0526324,-0.0526325,-0.0526326,-0.0566327,-0.0566328,-0.0526329,-0.0566330,-0.0486331,-0.0486332,-0.0486333,-0.0446334,-0.046335,-0.046336,-0.0366337,-0.0446338,-0.0446339,-0.0526340,-0.066341,-0.0646342,-0.0646343,-0.066344,-0.066345,-0.0526346,-0.0486347,-0.0446348,-0.0446349,-0.0486350,-0.0526351,-0.066352,-0.066353,-0.066354,-0.066355,-0.0526356,-0.0526357,-0.0526358,-0.0486359,-0.0526360,-0.0526361,-0.0526362,-0.0526363,-0.0526364,-0.0486365,-0.0486366,-0.0486367,-0.0486368,-0.0486369,-0.0526370,-0.0526371,-0.0526372,-0.0486373,-0.0486374,-0.0446375,-0.0446376,-0.0486377,-0.0526378,-0.066379,-0.0646380,-0.0686381,-0.0646382,-0.0686383,-0.0646384,-0.066385,-0.066386,-0.0526387,-0.066388,-0.0526389,-0.0566390,-0.0526391,-0.0526392,-0.0526393,-0.066394,-0.066395,-0.066396,-0.066397,-0.0646398,-0.066399,-0.066400,-0.066401,-0.0526402,-0.0566403,-0.0526404,-0.0566405,-0.066406,-0.066407,-0.066408,-0.066409,-0.066410,-0.0526411,-0.0566412,-0.0526413,-0.0566414,-0.066415,-0.066416,-0.0646417,-0.0686418,-0.0686419,-0.066420,-0.0646421,-0.066422,-0.0646423,-0.066424,-0.066425,-0.066426,-0.066427,-0.0526428,-0.0526429,-0.0526430,-0.0486431,-0.0526432,-0.066433,-0.066434,-0.0646435,-0.0686436,-0.0686437,-0.0646438,-0.066439,-0.066440,-0.0486441,-0.0486442,-0.0446443,-0.0446444,-0.0486445,-0.0486446,-0.0526447,-0.066448,-0.066449,-0.066450,-0.066451,-0.0566452,-0.0526453,-0.0526454,-0.0526455,-0.0486456,-0.0526457,-0.0486458,-0.0526459,-0.0486460,-0.0486461,-0.0486462,-0.0446463,-0.0446464,-0.0446465,-0.0486466,-0.0486467,-0.0526468,-0.0526469,-0.0566470,-0.0486471,-0.0486472,-0.0446473,-0.0446474,-0.0446475,-0.0446476,-0.0486477,-0.0486478,-0.0486479,-0.0446480,-0.046481,-0.0366482,-0.0366483,-0.046484,-0.0446485,-0.0486486,-0.0566487,-0.0566488,-0.0566489,-0.0526490,-0.0446491,-0.046492,-0.0366493,-0.0286494,-0.0286495,-0.0366496,-0.0446497,-0.0446498,-0.0446499,-0.0486500,-0.0446501,-0.0486502,-0.0446503,-0.0446504,-0.046505,-0.0446506,-0.0366507,-0.0366508,-0.0366509,-0.0366510,-0.0366511,-0.046512,-0.0446513,-0.0486514,-0.0486515,-0.0526516,-0.0486517,-0.0486518,-0.0446519,-0.0446520,-0.046521,-0.0446522,-0.0446523,-0.0486524,-0.0486525,-0.0526526,-0.066527,-0.066528,-0.066529,-0.066530,-0.066531,-0.066532,-0.066533,-0.0566534,-0.0526535,-0.0526536,-0.0486537,-0.0526538,-0.0486539,-0.066540,-0.066541,-0.066542,-0.066543,-0.066544,-0.0486545,-0.0486546,-0.0446547,-0.0446548,-0.0446549,-0.0486550,-0.0526551,-0.066552,-0.066553,-0.066554,-0.066555,-0.066556,-0.0526557,-0.0566558,-0.0526559,-0.0526560,-0.0566561,-0.0566562,-0.066563,-0.066564,-0.066565,-0.066566,-0.066567,-0.066568,-0.0646569,-0.066570,-0.066571,-0.066572,-0.0526573,-0.0526574,-0.0526575,-0.0486576,-0.0526577,-0.0526578,-0.0526579,-0.0526580,-0.0566581,-0.066582,-0.0526583,-0.066584,-0.0526585,-0.0526586,-0.0486587,-0.0446588,-0.0446589,-0.0446590,-0.0446591,-0.0446592,-0.0526593,-0.0486594,-0.0566595,-0.0526596,-0.0486597,-0.0446598,-0.0446599,-0.0446600,-0.0446601,-0.0446602,-0.0486603,-0.0526604,-0.0526605,-0.0526606,-0.0486607,-0.0446608,-0.0446609,-0.0366610,-0.0446611,-0.0446612,-0.0446613,-0.0486614,-0.0446615,-0.0446616,-0.0446617,-0.0446618,-0.0366619,-0.046620,-0.0446621,-0.0446622,-0.0486623,-0.0486624,-0.0486625,-0.0446626,-0.0446627,-0.046628,-0.046629,-0.0366630,-0.0446631,-0.0446632,-0.0446633,-0.0486634,-0.0446635,-0.0446636,-0.046637,-0.0446638,-0.0366639,-0.046640,-0.0446641,-0.0446642,-0.0446643,-0.0446644,-0.0486645,-0.0486646,-0.0486647,-0.0446648,-0.0446649,-0.046650,-0.046651,-0.0366652,-0.0286653,-0.0366654,-0.0366655,-0.0366656,-0.0446657,-0.0486658,-0.0486659,-0.0526660,-0.0486661,-0.0486662,-0.0446663,-0.0446664,-0.0446665,-0.0446666,-0.0446667,-0.0446668,-0.0446669,-0.046670,-0.0446671,-0.0446672,-0.0446673,-0.0486674,-0.0486675,-0.0526676,-0.0566677,-0.0526678,-0.0486679,-0.0486680,-0.0446681,-0.0366682,-0.0446683,-0.0366684,-0.0446685,-0.0446686,-0.0446687,-0.0446688,-0.0486689,-0.0486690,-0.0446691,-0.0446692,-0.0446693,-0.0446694,-0.046695,-0.0446696,-0.0446697,-0.0446698,-0.0446699,-0.0446700,-0.0446701,-0.0446702,-0.0446703,-0.0446704,-0.0446705,-0.046706,-0.0366707,-0.0446708,-0.0446709,-0.0526710,-0.0526711,-0.066712,-0.0526713,-0.0566714,-0.0486715,-0.0486716,-0.0446717,-0.0446718,-0.046719,-0.0446720,-0.0446721,-0.0366722,-0.0366723,-0.0326724,-0.0326725,-0.0366726,-0.046727,-0.0446728,-0.0446729,-0.0526730,-0.0526731,-0.0446732,-0.0446733,-0.0366734,-0.0326735,-0.0286736,-0.0286737,-0.0366738,-0.0366739,-0.046740,-0.0446741,-0.0446742,-0.046743,-0.0366744,-0.0366745,-0.0366746,-0.046747,-0.0486748,-0.0446749,-0.0566750,-0.0486751,-0.0526752,-0.0486753,-0.0446754,-0.0446755,-0.0446756,-0.0446757,-0.0446758,-0.0446759,-0.0446760,-0.0446761,-0.046762,-0.0446763,-0.0366764,-0.0446765,-0.0446766,-0.0446767,-0.0446768,-0.0486769,-0.0486770,-0.0446771,-0.0446772,-0.046773,-0.0446774,-0.0446775,-0.046776,-0.046777,-0.046778,-0.046779,-0.0446780,-0.0446781,-0.0446782,-0.0486783,-0.0486784,-0.0526785,-0.0486786,-0.0486787,-0.0486788,-0.0446789,-0.0446790,-0.0446791,-0.0486792,-0.0486793,-0.046794,-0.046795,-0.0286796,-0.0366797,-0.0446798,-0.0446799,-0.0446800,-0.0446801,-0.0446802,-0.0486803,-0.0686804,-0.026805,-0.0526806,-0.0326807,-0.0446808,-0.0446809,-0.0526810,-0.0686811,-0.0766812,-0.086813,-0.0846814,-0.0926815,-0.0886816,-0.0846817,-0.0846818,-0.0766819,-0.0766820,-0.0726821,-0.0686822,-0.066823,-0.0566824,-0.0486825,-0.0446826,-0.046827,-0.0366828,-0.0286829,-0.0286830,-0.0286831,-0.026832,-0.0286833,-0.0286834,-0.0286835,-0.0326836,-0.0366837,-0.0286838,-0.0286839,-0.026840,-0.0126841,-0.0046842,-0.0046843,-0.0046844,-0.0046845,-0.0046846,-0.0046847,-0.0086848,-0.0046849,-0.0046850,0.0046851,0.0046852,0.0086853,0.0126854,0.0086855,0.0046856,0.0046857,0.0086858,0.0126859,0.0166860,0.026861,0.0246862,0.0246863,0.0286864,0.0246865,0.0246866,0.0286867,0.0366868,0.0366869,0.0446870,0.0446871,0.0446872,0.0366873,0.0326874,0.0286875,0.0326876,0.0286877,0.0446878,0.0446879,0.0526880,0.0526881,0.0526882,0.0526883,0.0486884,0.0446885,0.0366886,0.0366887,0.0286888,0.0286889,0.0326890,0.0286891,0.0286892,0.0366893,0.0326894,0.0326895,0.0366896,0.0366897,0.0326898,0.0366899,0.0286900,0.0326901,0.0246902,0.0286903,0.0246904,0.0286905,0.0286906,0.0286907,0.0286908,0.0246909,0.026910,0.026911,0.026912,0.0166913,0.0166914,0.0126915,0.0126916,0.0126917,0.0126918,0.0086919,0.0126920,0.0126921,0.0126922,0.0126923,0.0126924,0.0046925,0.0046926,-0.0046927,-0.0046928,-0.0126929,-0.0086930,-0.0086931,-0.0046932,-0.0046933,06934,06935,0.0046936,06937,-0.0046938,-0.0046939,-0.0086940,-0.0046941,-0.0126942,-0.0046943,-0.0126944,-0.0046945,-0.0046946,-0.0046947,-0.0046948,-0.0046949,-0.0086950,-0.0086951,-0.0046952,-0.0046953,-0.0046954,-0.0046955,06956,06957,0.0046958,0.0046959,0.0046960,0.0046961,-0.0046962,06963,-0.0046964,-0.0086965,-0.0086966,-0.0046967,06968,0.0046969,0.0046970,0.0046971,0.0046972,0.0046973,0.0046974,0.0046975,0.0086976,0.0126977,0.0086978,0.0046979,0.0046980,06981,-0.0046982,06983,-0.0046984,0.0046985,0.0126986,0.026987,0.026988,0.026989,0.026990,0.0126991,0.0046992,0.0046993,06994,0.0046995,0.0046996,0.0086997,0.0126998,0.0166999,0.0127000,0.0127001,0.0047002,0.0047003,0.0047004,0.0127005,0.0127006,0.0127007,0.0127008,0.0127009,0.0127010,0.0047011,0.0087012,0.0127013,0.0127014,0.0127015,0.0167016,0.0167017,0.0127018,0.0127019,0.0047020,0.0047021,0.0047022,0.0047023,0.0047024,0.0047025,0.0047026,0.0087027,0.0127028,0.0047029,0.0047030,0.0047031,07032,-0.0047033,07034,-0.0087035,-0.0087036,-0.0047037,-0.0127038,-0.0047039,07040,0.0047041,07042,0.0047043,-0.0047044,-0.0047045,-0.0127046,-0.0127047,-0.0127048,-0.0087049,-0.0127050,-0.0047051,0.0047052,07053,07054,0.0047055,0.0047056,0.0047057,-0.0047058,-0.0047059,-0.0047060,-0.0127061,-0.0127062,-0.0127063,-0.0127064,-0.0127065,-0.0127066,-0.0127067,-0.0087068,-0.0047069,-0.0047070,-0.0087071,-0.0127072,-0.0127073,-0.0167074,-0.027075,-0.027076,-0.0167077,-0.0167078,-0.0127079,-0.0127080,-0.0127081,-0.0127082,-0.0047083,-0.0087084,-0.0087085,-0.0127086,-0.0127087,-0.0127088,-0.0127089,-0.0167090,-0.0127091,-0.0127092,-0.0127093,-0.0047094,-0.0047095,-0.0127096,-0.0087097,-0.0167098,-0.0167099,-0.0127100,-0.0127101,-0.0127102,-0.0127103,-0.0047104,-0.0047105,-0.0087106,-0.0127107,-0.0127108,-0.0167109,-0.027110,-0.0167111,-0.0167112,-0.0127113,-0.0127114,-0.0127115,-0.0127116,-0.0127117,-0.0167118,-0.0127119,-0.0167120,-0.0127121,-0.0127122,-0.0127123,-0.0127124,-0.0127125,-0.0127126,-0.027127,-0.027128,-0.027129,-0.027130,-0.0127131,-0.0087132,-0.0087133,-0.0047134,-0.0087135,-0.0127136,-0.0167137,-0.027138,-0.0247139,-0.027140,-0.0127141,-0.0127142,-0.0127143,-0.0047144,-0.0047145,-0.0087146,-0.0127147,-0.0167148,-0.0127149,-0.027150,-0.027151,-0.0247152,-0.027153,-0.0287154,-0.0287155,-0.027156,-0.027157,-0.0167158,-0.0127159,-0.0127160,-0.0127161,-0.0087162,-0.0127163,-0.0167164,-0.0167165,-0.027166,-0.027167,-0.027168,-0.0287169,-0.0287170,-0.0287171,-0.0247172,-0.0287173,-0.027174,-0.027175,-0.027176,-0.0167177,-0.027178,-0.0287179,-0.027180,-0.0287181,-0.0287182,-0.0287183,-0.0287184,-0.0287185,-0.0287186,-0.027187,-0.0287188,-0.027189,-0.0287190,-0.0287191,-0.0367192,-0.0287193,-0.0287194,-0.0327195,-0.0247196,-0.0287197,-0.0167198,-0.0167199,-0.0167200,-0.0167201,-0.027202,-0.0287203,-0.0287204,-0.0287205,-0.0287206,-0.0287207,-0.0367208,-0.0327209,-0.0287210,-0.0287211,-0.0287212,-0.027213,-0.0167214,-0.027215,-0.027216,-0.0287217,-0.0287218,-0.0287219,-0.0287220,-0.0367221,-0.0367222,-0.0367223,-0.0367224,-0.0367225,-0.0287226,-0.0287227,-0.027228,-0.0127229,-0.0127230,-0.0127231,-0.0127232,-0.0127233,-0.027234,-0.0247235,-0.0287236,-0.0287237,-0.027238,-0.0167239,-0.0167240,-0.0127241,-0.0167242,-0.027243,-0.0247244,-0.0287245,-0.0287246,-0.027247,-0.027248,-0.0167249,-0.0167250,-0.0127251,-0.0167252,-0.0167253,-0.0247254,-0.0287255,-0.0287256,-0.0287257,-0.0287258,-0.0247259,-0.0287260,-0.0287261,-0.0327262,-0.0287263,-0.0367264,-0.0287265,-0.0327266,-0.027267,-0.027268,-0.0167269,-0.0167270,-0.0167271,-0.0287272,-0.0287273,-0.0327274,-0.0287275,-0.0327276,-0.0327277,-0.0287278,-0.0287279,-0.0287280,-0.0247281,-0.0287282,-0.0327283,-0.0367284,-0.0327285,-0.0287286,-0.0287287,-0.0287288,-0.0287289,-0.0287290,-0.0287291,-0.0287292,-0.0287293,-0.0327294,-0.0367295,-0.0367296,-0.0447297,-0.0447298,-0.0447299,-0.0447300,-0.0447301,-0.047302,-0.0327303,-0.0367304,-0.0367305,-0.0327306,-0.0327307,-0.0367308,-0.047309,-0.047310,-0.0447311,-0.0447312,-0.0447313,-0.0447314,-0.0447315,-0.047316,-0.0447317,-0.047318,-0.0447319,-0.0367320,-0.0327321,-0.0367322,-0.0327323,-0.0367324,-0.0327325,-0.047326,-0.0447327,-0.0447328,-0.0447329,-0.0447330,-0.0447331,-0.0447332,-0.047333,-0.0447334,-0.0447335,-0.047336,-0.047337,-0.0367338,-0.0367339,-0.0367340,-0.0367341,-0.0367342,-0.0287343,-0.0367344,-0.0367345,-0.0327346,-0.0367347,-0.0367348,-0.0447349,-0.0447350,-0.0447351,-0.0447352,-0.0447353,-0.047354,-0.0367355,-0.0367356,-0.0287357,-0.0287358,-0.0287359,-0.0287360,-0.0367361,-0.047362,-0.0367363,-0.047364,-0.0367365,-0.047366,-0.0367367,-0.047368,-0.0447369,-0.0447370,-0.0447371,-0.047372,-0.0327373,-0.0287374,-0.027375,-0.0167376,-0.0167377,-0.027378,-0.0287379,-0.0367380,-0.0367381,-0.0447382,-0.0367383,-0.0367384,-0.0287385,-0.0287386,-0.027387,-0.0247388,-0.0287389,-0.0287390,-0.0327391,-0.0327392,-0.0287393,-0.0327394,-0.0287395,-0.0287396,-0.0367397,-0.0367398,-0.0367399,-0.047400,-0.0367401,-0.0367402,-0.0327403,-0.0367404,-0.0367405,-0.0367406,-0.0367407,-0.047408,-0.0367409,-0.047410,-0.0447411,-0.0367412,-0.0367413,-0.0327414,-0.0327415,-0.0327416,-0.0327417,-0.0367418,-0.0367419,-0.0447420,-0.0447421,-0.0447422,-0.047423,-0.0447424,-0.0447425,-0.0447426,-0.047427,-0.0367428,-0.0367429,-0.0367430,-0.0367431,-0.0367432,-0.047433,-0.0447434,-0.0447435,-0.0487436,-0.0447437,-0.0447438,-0.0447439,-0.0447440,-0.0447441,-0.0447442,-0.0487443,-0.0487444,-0.0487445,-0.0487446,-0.0447447,-0.0447448,-0.0447449,-0.0447450,-0.0447451,-0.0447452,-0.0447453,-0.0447454,-0.0487455,-0.0487456,-0.0487457,-0.0487458,-0.0487459,-0.0487460,-0.0447461,-0.0487462,-0.0447463,-0.0447464,-0.0447465,-0.0447466,-0.0367467,-0.0367468,-0.047469,-0.0367470,-0.0367471,-0.0447472,-0.0447473,-0.0487474,-0.0487475,-0.0527476,-0.0487477,-0.0487478,-0.0487479,-0.0447480,-0.0447481,-0.047482,-0.0367483,-0.0367484,-0.0447485,-0.0447486,-0.0447487,-0.0487488,-0.0487489,-0.0447490,-0.0447491,-0.0367492,-0.0367493,-0.0367494,-0.047495,-0.0447496,-0.0447497,-0.0447498,-0.0447499,-0.047500,-0.047501,-0.0367502,-0.0327503,-0.0327504,-0.0367505,-0.0367506,-0.047507,-0.0447508,-0.047509,-0.047510,-0.047511,-0.0367512,-0.0367513,-0.047514,-0.0447515,-0.047516,-0.0447517,-0.0447518,-0.047519,-0.0367520,-0.0367521,-0.0287522,-0.0327523,-0.0367524,-0.047525,-0.0447526,-0.0447527,-0.0447528,-0.0447529,-0.047530,-0.0367531,-0.0327532,-0.0287533,-0.0367534,-0.0367535,-0.0367536,-0.0367537,-0.047538,-0.047539,-0.0447540,-0.0447541,-0.0447542,-0.0447543,-0.0447544,-0.0447545,-0.0447546,-0.047547,-0.047548,-0.047549,-0.047550,-0.0447551,-0.0447552,-0.0447553,-0.0447554,-0.0487555,-0.0487556,-0.0487557,-0.0447558,-0.0447559,-0.0447560,-0.0447561,-0.0447562,-0.0447563,-0.0447564,-0.0447565,-0.0447566,-0.0447567,-0.0487568,-0.0527569,-0.0567570,-0.0527571,-0.0567572,-0.0527573,-0.0527574,-0.0487575,-0.0447576,-0.0447577,-0.0447578,-0.0487579,-0.0527580,-0.0527581,-0.0567582,-0.067583,-0.0527584,-0.0567585,-0.0487586,-0.0487587,-0.0487588,-0.0487589,-0.0527590,-0.0527591,-0.0527592,-0.0527593,-0.0527594,-0.0487595,-0.0487596,-0.0487597,-0.0447598,-0.0447599,-0.0487600,-0.0447601,-0.0447602,-0.0487603,-0.0487604,-0.0487605,-0.0487606,-0.0487607,-0.0447608,-0.0487609,-0.0447610,-0.0447611,-0.0447612,-0.0447613,-0.0447614,-0.0447615,-0.0447616,-0.0447617,-0.0447618,-0.0447619,-0.0447620,-0.0487621,-0.0447622,-0.0487623,-0.0487624,-0.0487625,-0.0447626,-0.0447627,-0.047628,-0.0367629,-0.0447630,-0.0447631,-0.0487632,-0.0527633,-0.0527634,-0.0527635,-0.0447636,-0.0447637,-0.0367638,-0.0367639,-0.0327640,-0.0367641,-0.047642,-0.0447643,-0.0487644,-0.0447645,-0.0447646,-0.047647,-0.047648,-0.0367649,-0.0327650,-0.0367651,-0.0367652,-0.0367653,-0.0367654,-0.0367655,-0.0367656,-0.0327657,-0.0367658,-0.0367659,-0.0447660,-0.0447661,-0.0487662,-0.0447663,-0.0447664,-0.0447665,-0.047666,-0.047667,-0.0447668,-0.0367669,-0.0447670,-0.0447671,-0.0447672,-0.0487673,-0.0487674,-0.0447675,-0.0487676,-0.0447677,-0.0447678,-0.0447679,-0.0447680,-0.0447681,-0.0447682,-0.0487683,-0.0527684,-0.0527685,-0.0527686,-0.0527687,-0.0527688,-0.0527689,-0.0487690,-0.0447691,-0.0447692,-0.047693,-0.0367694,-0.0447695,-0.0447696,-0.0527697,-0.067698,-0.067699,-0.067700,-0.067701,-0.067702,-0.0527703,-0.0487704,-0.0487705,-0.0487706,-0.0447707,-0.0447708,-0.0447709,-0.0447710,-0.0447711,-0.0447712,-0.0527713,-0.0567714,-0.067715,-0.067716,-0.0647717,-0.067718,-0.067719,-0.0567720,-0.0527721,-0.0487722,-0.0447723,-0.0447724,-0.0447725,-0.0487726,-0.0527727,-0.0567728,-0.067729,-0.067730,-0.067731,-0.0567732,-0.0527733,-0.0527734,-0.0527735,-0.0447736,-0.0487737,-0.0487738,-0.0527739,-0.0527740,-0.0487741,-0.0527742,-0.0487743,-0.0487744,-0.0447745,-0.0447746,-0.0447747,-0.0447748,-0.0527749,-0.0527750,-0.0567751,-0.067752,-0.0527753,-0.0527754,-0.0527755,-0.0487756,-0.0487757,-0.0487758,-0.0527759,-0.0487760,-0.0487761,-0.0487762,-0.0447763,-0.047764,-0.0447765,-0.0487766,-0.0447767,-0.0527768,-0.067769,-0.067770,-0.0527771,-0.0527772,-0.0487773,-0.0447774,-0.0447775,-0.0447776,-0.0447777,-0.0447778,-0.0527779,-0.0527780,-0.0487781,-0.0487782,-0.0447783,-0.0447784,-0.0447785,-0.0447786,-0.0447787,-0.0487788,-0.0487789,-0.0527790,-0.0527791,-0.0487792,-0.0487793,-0.0487794,-0.0447795,-0.0447796,-0.0447797,-0.0447798,-0.047799,-0.0367800,-0.0367801,-0.0367802,-0.047803,-0.0447804,-0.0487805,-0.0527806,-0.0527807,-0.0487808,-0.0527809,-0.0487810,-0.0487811,-0.0487812,-0.0487813,-0.0447814,-0.0487815,-0.0487816,-0.0487817,-0.0487818,-0.0487819,-0.0487820,-0.0527821,-0.0527822,-0.0527823,-0.0527824,-0.0527825,-0.0527826,-0.0487827,-0.0487828,-0.0487829,-0.0487830,-0.0487831,-0.0527832,-0.0487833,-0.0527834,-0.0487835,-0.0487836,-0.0447837,-0.0447838,-0.0367839,-0.0447840,-0.0487841,-0.0527842,-0.0527843,-0.067844,-0.067845,-0.067846,-0.067847,-0.0487848,-0.0447849,-0.0447850,-0.0447851,-0.047852,-0.047853,-0.0447854,-0.0447855,-0.0487856,-0.0527857,-0.067858,-0.067859,-0.067860,-0.067861,-0.0527862,-0.0567863,-0.0527864,-0.0527865,-0.0487866,-0.0447867,-0.0447868,-0.0447869,-0.047870,-0.0447871,-0.0447872,-0.0447873,-0.0487874,-0.0527875,-0.067876,-0.0527877,-0.0567878,-0.0487879,-0.0447880,-0.0447881,-0.0447882,-0.0447883,-0.0447884,-0.0487885,-0.0487886,-0.0447887,-0.0487888,-0.0447889,-0.047890,-0.0447891,-0.0447892,-0.0447893,-0.0447894,-0.0527895,-0.0567896,-0.0527897,-0.067898,-0.0527899,-0.0487900,-0.0487901,-0.0487902,-0.0487903,-0.0527904,-0.0527905,-0.0527906,-0.0527907,-0.0487908,-0.0447909,-0.0447910,-0.0447911,-0.0527912,-0.0527913,-0.0567914,-0.067915,-0.067916,-0.0527917,-0.0527918,-0.0487919,-0.0447920,-0.0487921,-0.0447922,-0.0487923,-0.0487924,-0.0527925,-0.0487926,-0.0527927,-0.0527928,-0.0527929,-0.0567930,-0.0527931,-0.0567932,-0.067933,-0.0527934,-0.0567935,-0.0567936,-0.0527937,-0.067938,-0.067939,-0.067940,-0.067941,-0.067942,-0.067943,-0.067944,-0.0527945,-0.0527946,-0.0527947,-0.067948,-0.067949,-0.067950,-0.0647951,-0.0647952,-0.0647953,-0.0647954,-0.067955,-0.067956,-0.067957,-0.067958,-0.067959,-0.067960,-0.067961,-0.067962,-0.067963,-0.067964,-0.067965,-0.0647966,-0.0687967,-0.0727968,-0.0727969,-0.0767970,-0.0687971,-0.0687972,-0.067973,-0.067974,-0.0567975,-0.067976,-0.067977,-0.067978,-0.067979,-0.067980,-0.0647981,-0.067982,-0.0647983,-0.067984,-0.0647985,-0.067986,-0.067987,-0.0647988,-0.0647989,-0.0687990,-0.0687991,-0.0727992,-0.0687993,-0.0687994,-0.0647995,-0.067996,-0.0567997,-0.067998,-0.067999,-0.068000,-0.068001,-0.0688002,-0.0688003,-0.0768004,-0.0768005,-0.0688006,-0.0688007,-0.0688008,-0.068009,-0.0688010,-0.0648011,-0.0688012,-0.0648013,-0.068014,-0.068015,-0.0568016,-0.068017,-0.068018,-0.068019,-0.0688020,-0.0768021,-0.0768022,-0.0728023,-0.0688024,-0.068025,-0.0528026,-0.0568027,-0.0568028,-0.068029,-0.068030,-0.068031,-0.0688032,-0.0728033,-0.0768034,-0.0688035,-0.0688036,-0.0688037,-0.0688038,-0.0728039,-0.0728040,-0.0688041,-0.0688042,-0.0688043,-0.0688044,-0.0688045,-0.0688046,-0.0688047,-0.0768048,-0.0768049,-0.0768050,-0.0768051,-0.0768052,-0.0728053,-0.0688054,-0.0728055,-0.0728056,-0.0728057,-0.0728058,-0.0768059,-0.0728060,-0.0728061,-0.0728062,-0.0688063,-0.0728064,-0.0688065,-0.0768066,-0.0768067,-0.0768068,-0.0728069,-0.0768070,-0.0688071,-0.0688072,-0.0728073,-0.0768074,-0.0768075,-0.088076,-0.088077,-0.0768078,-0.0768079,-0.0768080,-0.0728081,-0.0728082,-0.0728083,-0.0768084,-0.0768085,-0.088086,-0.088087,-0.088088,-0.0768089,-0.0768090,-0.0728091,-0.0688092,-0.0728093,-0.0768094,-0.0728095,-0.0768096,-0.0768097,-0.0768098,-0.0768099,-0.0768100,-0.0768101,-0.0728102,-0.0728103,-0.0768104,-0.0728105,-0.0688106,-0.0728107,-0.0688108,-0.0688109,-0.0648110,-0.068111,-0.0688112,-0.0688113,-0.0688114,-0.0688115,-0.0688116,-0.0768117,-0.0688118,-0.0728119,-0.0688120,-0.0688121,-0.0648122,-0.068123,-0.068124,-0.0648125,-0.0648126,-0.0648127,-0.0688128,-0.0688129,-0.0648130,-0.068131,-0.068132,-0.0568133,-0.0528134,-0.068135,-0.068136,-0.068137,-0.0688138,-0.0688139,-0.0728140,-0.0688141,-0.0648142,-0.068143,-0.068144,-0.068145,-0.068146,-0.068147,-0.068148,-0.0648149,-0.068150,-0.0648151,-0.068152,-0.068153,-0.068154,-0.068155,-0.068156,-0.068157,-0.068158,-0.0568159,-0.0528160,-0.0528161,-0.0488162,-0.0488163,-0.0568164,-0.0528165,-0.0648166,-0.0648167,-0.068168,-0.0648169,-0.0568170,-0.0528171,-0.0488172,-0.0488173,-0.0528174,-0.0528175,-0.068176,-0.068177,-0.068178,-0.068179,-0.0648180,-0.0648181,-0.0648182,-0.068183,-0.068184,-0.0568185,-0.0528186,-0.0488187,-0.0528188,-0.0528189,-0.0528190,-0.0648191,-0.0648192,-0.0768193,-0.0728194,-0.0728195,-0.0688196,-0.0648197,-0.068198,-0.0528199,-0.0528200,-0.0528201,-0.068202,-0.0568203,-0.068204,-0.068205,-0.068206,-0.068207,-0.068208,-0.068209,-0.0648210,-0.0688211,-0.068212,-0.0688213,-0.068214,-0.068215,-0.0568216,-0.0528217,-0.0528218,-0.0528219,-0.068220,-0.068221,-0.0648222,-0.0648223,-0.0688224,-0.0648225,-0.0648226,-0.0648227,-0.068228,-0.0688229,-0.0648230,-0.0688231,-0.0688232,-0.0688233,-0.0728234,-0.0688235,-0.068236,-0.068237,-0.068238,-0.0528239,-0.0528240,-0.0528241,-0.068242,-0.068243,-0.068244,-0.0688245,-0.0688246,-0.0688247,-0.0688248,-0.0688249,-0.0648250,-0.0648251,-0.068252,-0.068253,-0.068254,-0.0568255,-0.068256,-0.0568257,-0.068258,-0.0528259,-0.068260,-0.0648261,-0.068262,-0.0728263,-0.0688264,-0.0688265,-0.0688266,-0.0648267,-0.068268,-0.0528269,-0.0528270,-0.0528271,-0.0528272,-0.068273,-0.068274,-0.068275,-0.068276,-0.0528277,-0.068278,-0.0528279,-0.0528280,-0.0528281,-0.0528282,-0.0568283,-0.068284,-0.068285,-0.0528286,-0.0528287,-0.0528288,-0.0488289,-0.0488290,-0.0448291,-0.0448292,-0.0528293,-0.0528294,-0.0488295,-0.0528296,-0.0488297,-0.0568298,-0.0568299,-0.0568300,-0.068301,-0.068302,-0.0568303,-0.0528304,-0.0488305,-0.0448306,-0.0448307,-0.0448308,-0.0448309,-0.0488310,-0.0448311,-0.0528312,-0.0488313,-0.0488314,-0.0488315,-0.0488316,-0.0448317,-0.0488318,-0.0488319,-0.0528320,-0.0488321,-0.0488322,-0.0488323,-0.0488324,-0.0528325,-0.0488326,-0.0488327,-0.0528328,-0.0528329,-0.0488330,-0.0448331,-0.0448332,-0.0368333,-0.048334,-0.0448335,-0.0448336,-0.0528337,-0.068338,-0.068339,-0.068340,-0.0568341,-0.0528342,-0.0448343,-0.0368344,-0.0368345,-0.0368346,-0.048347,-0.0448348,-0.0448349,-0.0488350,-0.0448351,-0.0528352,-0.0488353,-0.0528354,-0.0528355,-0.0488356,-0.0528357,-0.0448358,-0.0488359,-0.0448360,-0.0448361,-0.048362,-0.0448363,-0.048364,-0.0448365,-0.0448366,-0.0488367,-0.0528368,-0.0528369,-0.0528370,-0.0528371,-0.0528372,-0.0528373,-0.0528374,-0.0528375,-0.0488376,-0.0528377,-0.0528378,-0.0568379,-0.0528380,-0.0528381,-0.0488382,-0.0488383,-0.0448384,-0.0448385,-0.0448386,-0.0448387,-0.0488388,-0.0488389,-0.068390,-0.068391,-0.068392,-0.0528393,-0.0568394,-0.0488395,-0.0448396,-0.0448397,-0.0448398,-0.0448399,-0.0448400,-0.0488401,-0.0528402,-0.0568403,-0.0528404,-0.0568405,-0.0528406,-0.068407,-0.0648408,-0.068409,-0.068410,-0.068411,-0.068412,-0.0528413,-0.0528414,-0.0488415,-0.0448416,-0.0448417,-0.0488418,-0.0488419,-0.0528420,-0.0528421,-0.0568422,-0.0528423,-0.0528424,-0.0528425,-0.0528426,-0.0568427,-0.0568428,-0.0528429,-0.0528430,-0.0488431,-0.0448432,-0.0488433,-0.0448434,-0.0488435,-0.0528436,-0.0488437,-0.0488438,-0.0488439,-0.0488440,-0.0488441,-0.0448442,-0.0488443,-0.0528444,-0.0528445,-0.0568446,-0.0528447,-0.0528448,-0.0448449,-0.0488450,-0.0448451,-0.0448452,-0.0448453,-0.0448454,-0.0448455,-0.0488456,-0.0488457,-0.0488458,-0.0448459,-0.0448460,-0.0448461,-0.0448462,-0.0488463,-0.0488464,-0.0488465,-0.0488466,-0.0448467,-0.0448468,-0.0368469,-0.048470,-0.048471,-0.0448472,-0.0448473,-0.0488474,-0.0528475,-0.0528476,-0.0488477,-0.0448478,-0.0448479,-0.0368480,-0.0368481,-0.048482,-0.0448483,-0.0448484,-0.0448485,-0.0448486,-0.0448487,-0.0448488,-0.0448489,-0.0288490,-0.0448491,-0.0248492,-0.028493,-0.0328494,-0.048495,-0.0328496,-0.048497,-0.0368498,-0.0248499,-0.0288500,0.0128501,0.0168502,0.0168503,0.0288504,0.0128505,0.0168506,0.028507,0.0368508,0.0688509,0.18510,0.1368511,0.1648512,0.1768513,0.1768514,0.1688515,0.1648516,0.1488517,0.1368518,0.1288519,0.128520,0.1168521,0.18522,0.0888523,0.0768524,0.068525,0.0488526,0.0328527,0.028528,0.0128529,0.0048530,08531,-0.0088532,-0.0168533,-0.0288534,-0.0368535,-0.0488536,-0.068537,-0.0688538,-0.0768539,-0.088540,-0.0848541,-0.0928542,-0.0968543,-0.1128544,-0.1168545,-0.128546,-0.1248547,-0.1288548,-0.1368549,-0.148550,-0.1448551,-0.1528552,-0.168553,-0.1688554,-0.1688555,-0.1688556,-0.1688557,-0.1688558,-0.1688559,-0.1688560,-0.1728561,-0.1768562,-0.1728563,-0.1688564,-0.1688565,-0.168566,-0.1648567,-0.168568,-0.168569,-0.168570,-0.168571,-0.1528572,-0.1488573,-0.148574,-0.1368575,-0.1288576,-0.128577,-0.1168578,-0.1168579,-0.1168580,-0.128581,-0.128582,-0.1168583,-0.1128584,-0.0968585,-0.0848586,-0.088587,-0.0768588,-0.0768589,-0.0688590,-0.0728591,-0.0688592,-0.0648593,-0.068594,-0.0528595,-0.0488596,-0.0448597,-0.0448598,-0.0448599,-0.0448600,-0.0448601,-0.0448602,-0.0368603,-0.0328604,-0.0288605,-0.0248606,-0.028607,-0.028608,-0.0288609,-0.0288610,-0.0368611,-0.0288612,-0.0288613,-0.0288614,-0.0248615,-0.0248616,-0.0288617,-0.0288618,-0.0328619,-0.0288620,-0.0328621,-0.0288622,-0.0328623,-0.0288624,-0.0288625,-0.028626,-0.0288627,-0.0288628,-0.0328629,-0.0368630,-0.0448631,-0.0448632,-0.0488633,-0.0488634,-0.0448635,-0.0448636,-0.0448637,-0.0368638,-0.0288639,-0.0328640,-0.0288641,-0.0368642,-0.048643,-0.0448644,-0.0528645,-0.0528646,-0.068647,-0.0528648,-0.068649,-0.0568650,-0.0528651,-0.0528652,-0.0528653,-0.0528654,-0.0528655,-0.0528656,-0.0528657,-0.0528658,-0.0568659,-0.068660,-0.068661,-0.0648662,-0.068663,-0.068664,-0.0528665,-0.0528666,-0.0448667,-0.0488668,-0.0528669,-0.0528670,-0.068671,-0.068672,-0.068673,-0.068674,-0.0528675,-0.0528676,-0.0488677,-0.0488678,-0.0448679,-0.0448680,-0.0488681,-0.0448682,-0.0488683,-0.0528684,-0.0568685,-0.068686,-0.0648687,-0.068688,-0.068689,-0.068690,-0.0528691,-0.0448692,-0.0448693,-0.048694,-0.0448695,-0.0448696,-0.0528697,-0.068698,-0.068699,-0.068700,-0.0568701,-0.0528702,-0.0488703,-0.0448704,-0.0448705,-0.0488706,-0.0488707,-0.0528708,-0.0488709,-0.0448710,-0.0448711,-0.0448712,-0.0448713,-0.0448714,-0.0448715,-0.0488716,-0.0488717,-0.0528718,-0.0488719,-0.0448720,-0.0448721,-0.0368722,-0.0368723,-0.0448724,-0.0448725,-0.0448726,-0.0528727,-0.0528728,-0.0488729,-0.0488730,-0.0448731,-0.0368732,-0.0368733,-0.0368734,-0.048735,-0.0448736,-0.0488737,-0.0488738,-0.0568739,-0.0528740,-0.0568741,-0.0528742,-0.0528743,-0.0488744,-0.0488745,-0.0488746,-0.0448747,-0.0448748,-0.048749,-0.0448750,-0.048751,-0.048752,-0.048753,-0.0448754,-0.0488755,-0.0488756,-0.0528757,-0.0568758,-0.068759,-0.0528760,-0.0528761,-0.0488762,-0.0528763,-0.0488764,-0.0448765,-0.0448766,-0.0448767,-0.0448768,-0.0488769,-0.0488770,-0.0488771,-0.0528772,-0.0528773,-0.0568774,-0.0528775,-0.0528776,-0.0568777,-0.0528778,-0.068779,-0.0528780,-0.0568781,-0.0528782,-0.0488783,-0.0448784,-0.0448785,-0.048786,-0.0448787,-0.0448788,-0.0448789,-0.0528790,-0.0528791,-0.0568792,-0.068793,-0.068794,-0.068795,-0.0528796,-0.0568797,-0.0488798,-0.0488799,-0.0448800,-0.0448801,-0.0448802,-0.0448803,-0.0448804,-0.0488805,-0.0488806,-0.0528807,-0.0568808,-0.0528809,-0.0528810,-0.0488811,-0.0488812,-0.0488813,-0.0488814,-0.0488815,-0.0448816,-0.0448817,-0.0368818,-0.048819,-0.0368820,-0.0368821,-0.048822,-0.0448823,-0.0448824,-0.0448825,-0.0448826,-0.0448827,-0.0448828,-0.048829,-0.0448830,-0.0448831,-0.0488832,-0.0488833,-0.0528834,-0.0488835,-0.0448836,-0.048837,-0.0328838,-0.0328839,-0.0328840,-0.0368841,-0.0368842,-0.0448843,-0.0488844,-0.0488845,-0.0488846,-0.0448847,-0.048848,-0.048849,-0.0368850,-0.0368851,-0.048852,-0.048853,-0.0368854,-0.048855,-0.0368856,-0.0368857,-0.0288858,-0.0368859,-0.0368860,-0.048861,-0.0448862,-0.0448863,-0.0488864,-0.0448865,-0.0448866,-0.0448867,-0.0448868,-0.048869,-0.0448870,-0.0448871,-0.0448872,-0.0448873,-0.0488874,-0.0488875,-0.0488876,-0.0488877,-0.0448878,-0.0448879,-0.0448880,-0.0448881,-0.0488882,-0.0448883,-0.0528884,-0.0488885,-0.0528886,-0.0528887,-0.068888,-0.068889,-0.068890,-0.0528891,-0.0488892,-0.0488893,-0.0448894,-0.0488895,-0.0488896,-0.0528897,-0.0528898,-0.0528899,-0.068900,-0.068901,-0.068902,-0.0568903,-0.068904,-0.068905,-0.068906,-0.068907,-0.0528908,-0.0528909,-0.0528910,-0.0488911,-0.0488912,-0.0488913,-0.0568914,-0.0528915,-0.068916,-0.068917,-0.068918,-0.0648919,-0.068920,-0.068921,-0.0568922,-0.0568923,-0.0528924,-0.0528925,-0.0528926,-0.0528927,-0.0488928,-0.0528929,-0.0528930,-0.0528931,-0.0488932,-0.0528933,-0.0448934,-0.0488935,-0.0488936,-0.0528937,-0.0568938,-0.068939,-0.068940,-0.068941,-0.068942,-0.0528943,-0.0528944,-0.0448945,-0.048946,-0.0368947,-0.0368948,-0.048949,-0.0448950,-0.0488951,-0.0488952,-0.0528953,-0.0528954,-0.0448955,-0.0448956,-0.0448957,-0.0448958,-0.0448959,-0.0448960,-0.0448961,-0.0448962,-0.0368963,-0.0368964,-0.0368965,-0.0368966,-0.0368967,-0.0448968,-0.0448969,-0.0488970,-0.0528971,-0.0448972,-0.048973,-0.0368974,-0.0328975,-0.0368976,-0.0368977,-0.0448978,-0.0448979,-0.0528980,-0.0488981,-0.0488982,-0.0448983,-0.048984,-0.048985,-0.0368986,-0.0368987,-0.048988,-0.0448989,-0.0448990,-0.0448991,-0.0448992,-0.0448993,-0.048994,-0.0448995,-0.0448996,-0.0448997,-0.0448998,-0.0368999,-0.0369000,-0.0369001,-0.049002,-0.049003,-0.0449004,-0.0449005,-0.0489006,-0.0529007,-0.0529008,-0.0529009,-0.0489010,-0.0489011,-0.0449012,-0.049013,-0.0449014,-0.0449015,-0.0489016,-0.0449017,-0.0529018,-0.0529019,-0.0569020,-0.0569021,-0.0569022,-0.069023,-0.0569024,-0.0529025,-0.0529026,-0.0489027,-0.0449028,-0.0489029,-0.0489030,-0.0529031,-0.0569032,-0.069033,-0.069034,-0.069035,-0.0649036,-0.069037,-0.0529038,-0.0489039,-0.0489040,-0.0449041,-0.0449042,-0.0449043,-0.0449044,-0.0489045,-0.0529046,-0.0529047,-0.0529048,-0.0529049,-0.0529050,-0.0489051,-0.0489052,-0.0489053,-0.0489054,-0.0529055,-0.0529056,-0.0529057,-0.0569058,-0.0529059,-0.0529060,-0.0489061,-0.0529062,-0.0489063,-0.0489064,-0.0529065,-0.0529066,-0.0529067,-0.0529068,-0.0489069,-0.0489070,-0.0449071,-0.0489072,-0.0449073,-0.0449074,-0.0489075,-0.0489076,-0.0529077,-0.0489078,-0.0489079,-0.0449080,-0.0449081,-0.0369082,-0.0369083,-0.0369084,-0.0449085,-0.0449086,-0.0449087,-0.0489088,-0.0449089,-0.0449090,-0.049091,-0.0369092,-0.0369093,-0.0369094,-0.0369095,-0.0449096,-0.0449097,-0.0449098,-0.0369099,-0.0369100,-0.0289101,-0.0289102,-0.0329103,-0.0289104,-0.0369105,-0.0369106,-0.0369107,-0.0329108,-0.0289109,-0.0289110,-0.0289111,-0.0289112,-0.0289113,-0.0369114,-0.0369115,-0.0369116,-0.0369117,-0.0369118,-0.0289119,-0.0289120,-0.0289121,-0.0289122,-0.0329123,-0.0369124,-0.0369125,-0.0369126,-0.0369127,-0.0369128,-0.0329129,-0.0369130,-0.0329131,-0.0289132,-0.0289133,-0.0289134,-0.0289135,-0.029136,-0.029137,-0.0249138,-0.0289139,-0.0289140,-0.0369141,-0.0369142,-0.0369143,-0.0369144,-0.0289145,-0.0289146,-0.029147,-0.029148,-0.0289149,-0.0289150,-0.0329151,-0.0369152,-0.0369153,-0.0329154,-0.0369155,-0.0289156,-0.0249157,-0.0289158,-0.0289159,-0.0329160,-0.0369161,-0.0369162,-0.0449163,-0.049164,-0.0369165,-0.049166,-0.0329167,-0.0329168,-0.0289169,-0.0289170,-0.029171,-0.029172,-0.0249173,-0.029174,-0.029175,-0.0289176,-0.0369177,-0.0369178,-0.0369179,-0.0369180,-0.0369181,-0.0369182,-0.0369183,-0.0369184,-0.0289185,-0.0289186,-0.0169187,-0.0169188,-0.0129189,-0.0169190,-0.0289191,-0.0289192,-0.0369193,-0.0369194,-0.049195,-0.0369196,-0.0369197,-0.0289198,-0.0289199,-0.0249200,-0.0169201,-0.029202,-0.0289203,-0.0289204,-0.0249205,-0.0289206,-0.029207,-0.029208,-0.0289209,-0.029210,-0.0289211,-0.0369212,-0.0369213,-0.0369214,-0.0369215,-0.0289216,-0.0289217,-0.029218,-0.029219,-0.029220,-0.0289221,-0.0289222,-0.0289223,-0.0329224,-0.0329225,-0.0289226,-0.0289227,-0.029228,-0.029229,-0.029230,-0.0289231,-0.0289232,-0.0329233,-0.0369234,-0.0369235,-0.0289236,-0.0289237,-0.0289238,-0.0289239,-0.0249240,-0.0289241,-0.0249242,-0.0289243,-0.0289244,-0.0249245,-0.0289246,-0.0289247,-0.0369248,-0.0369249,-0.049250,-0.049251,-0.049252,-0.0329253,-0.0289254,-0.0289255,-0.0249256,-0.029257,-0.0289258,-0.0289259,-0.0289260,-0.0289261,-0.0329262,-0.0289263,-0.0329264,-0.0289265,-0.0369266,-0.0369267,-0.049268,-0.049269,-0.0369270,-0.0329271,-0.0369272,-0.0329273,-0.0329274,-0.0329275,-0.0369276,-0.0369277,-0.0369278,-0.0369279,-0.0369280,-0.0289281,-0.0249282,-0.0169283,-0.0169284,-0.029285,-0.0289286,-0.0369287,-0.0449288,-0.0449289,-0.049290,-0.0369291,-0.0369292,-0.0249293,-0.0249294,-0.029295,-0.029296,-0.029297,-0.0249298,-0.0289299,-0.0329300,-0.0369301,-0.0369302,-0.0369303,-0.0369304,-0.0369305,-0.0369306,-0.0369307,-0.0329308,-0.0369309,-0.0329310,-0.0369311,-0.0329312,-0.0369313,-0.0329314,-0.0289315,-0.0289316,-0.0289317,-0.0289318,-0.0289319,-0.0369320,-0.0369321,-0.0369322,-0.0369323,-0.0369324,-0.0329325,-0.0369326,-0.0369327,-0.0369328,-0.0369329,-0.0369330,-0.0369331,-0.0289332,-0.0289333,-0.0289334,-0.0249335,-0.0289336,-0.0329337,-0.049338,-0.0449339,-0.0529340,-0.0529341,-0.0489342,-0.0489343,-0.0449344,-0.0369345,-0.0329346,-0.0289347,-0.0289348,-0.0289349,-0.0289350,-0.0369351,-0.0329352,-0.049353,-0.049354,-0.0449355,-0.0449356,-0.0449357,-0.0489358,-0.0449359,-0.049360,-0.0449361,-0.0369362,-0.0369363,-0.0369364,-0.0369365,-0.049366,-0.049367,-0.049368,-0.0449369,-0.0449370,-0.0449371,-0.049372,-0.0449373,-0.0449374,-0.0449375,-0.0449376,-0.0449377,-0.0449378,-0.0449379,-0.049380,-0.0449381,-0.0369382,-0.0449383,-0.0449384,-0.0449385,-0.0449386,-0.0449387,-0.0369388,-0.049389,-0.0369390,-0.0369391,-0.0449392,-0.0489393,-0.0489394,-0.0529395,-0.0569396,-0.0529397,-0.0529398,-0.0449399,-0.0449400,-0.049401,-0.0369402,-0.0449403,-0.0449404,-0.0449405,-0.0489406,-0.0489407,-0.0489408,-0.0449409,-0.0449410,-0.0449411,-0.0449412,-0.0449413,-0.0489414,-0.0449415,-0.0449416,-0.0449417,-0.0449418,-0.0449419,-0.0369420,-0.0449421,-0.0449422,-0.0489423,-0.0449424,-0.0449425,-0.0449426,-0.0449427,-0.049428,-0.0449429,-0.049430,-0.049431,-0.0449432,-0.0449433,-0.0449434,-0.0489435,-0.0489436,-0.0449437,-0.0449438,-0.0449439,-0.049440,-0.049441,-0.0369442,-0.0329443,-0.049444,-0.0449445,-0.0489446,-0.0529447,-0.0529448,-0.0529449,-0.0529450,-0.0489451,-0.0449452,-0.0449453,-0.0449454,-0.0449455,-0.0449456,-0.0449457,-0.0489458,-0.0449459,-0.0449460,-0.0449461,-0.0449462,-0.0449463,-0.049464,-0.0449465,-0.0449466,-0.0449467,-0.0449468,-0.0449469,-0.0449470,-0.0449471,-0.0489472,-0.0449473,-0.0449474,-0.0489475,-0.0449476,-0.0449477,-0.0449478,-0.049479,-0.049480,-0.0449481,-0.0449482,-0.0489483,-0.0529484,-0.0529485,-0.069486,-0.069487,-0.0569488,-0.0529489,-0.0529490,-0.0449491,-0.0489492,-0.0449493,-0.0449494,-0.0449495,-0.0449496,-0.0449497,-0.0489498,-0.0529499,-0.0529500,-0.069501,-0.069502,-0.0569503,-0.0489504,-0.0449505,-0.0369506,-0.0369507,-0.0369508,-0.0369509,-0.0449510,-0.0489511,-0.0529512,-0.0529513,-0.069514,-0.0489515,-0.0489516,-0.0449517,-0.0449518,-0.0449519,-0.0449520,-0.0489521,-0.0489522,-0.0449523,-0.0489524,-0.0449525,-0.049526,-0.0449527,-0.0449528,-0.0449529,-0.0489530,-0.0489531,-0.0529532,-0.0489533,-0.0489534,-0.049535,-0.049536,-0.049537,-0.049538,-0.0449539,-0.0489540,-0.0529541,-0.0529542,-0.0569543,-0.0489544,-0.0529545,-0.0449546,-0.0489547,-0.0489548,-0.0449549,-0.0529550,-0.0489551,-0.0529552,-0.0529553,-0.0569554,-0.0529555,-0.069556,-0.0529557,-0.0489558,-0.0529559,-0.0489560,-0.0489561,-0.0489562,-0.0529563,-0.0529564,-0.0529565,-0.0529566,-0.0569567,-0.0529568,-0.0529569,-0.0529570,-0.0529571,-0.0529572,-0.0569573,-0.0529574,-0.0489575,-0.0529576,-0.0529577,-0.0529578,-0.0529579,-0.069580,-0.069581,-0.069582,-0.0689583,-0.0689584,-0.0649585,-0.069586,-0.0529587,-0.0569588,-0.0489589,-0.0489590,-0.0489591,-0.0529592,-0.0529593,-0.0569594,-0.069595,-0.069596,-0.069597,-0.069598,-0.069599,-0.069600,-0.069601,-0.0569602,-0.069603,-0.0529604,-0.0489605,-0.0449606,-0.0489607,-0.0489608,-0.0529609,-0.069610,-0.0529611,-0.0489612,-0.0489613,-0.0449614,-0.0449615,-0.0449616,-0.0529617,-0.0489618,-0.0529619,-0.0569620,-0.0529621,-0.0489622,-0.0449623,-0.0449624,-0.0449625,-0.0449626,-0.0529627,-0.0569628,-0.069629,-0.069630,-0.0569631,-0.0449632,-0.0489633,-0.0489634,-0.0489635,-0.0529636,-0.0569637,-0.069638,-0.0569639,-0.0529640,-0.0489641,-0.0449642,-0.049643,-0.0449644,-0.0449645,-0.0489646,-0.0489647,-0.069648,-0.0529649,-0.0489650,-0.0449651,-0.0449652,-0.0449653,-0.0449654,-0.0449655,-0.0489656,-0.0529657,-0.0529658,-0.069659,-0.0529660,-0.0489661,-0.0529662,-0.0449663,-0.0449664,-0.0449665,-0.0489666,-0.0489667,-0.0489668,-0.0529669,-0.0529670,-0.0569671,-0.0529672,-0.069673,-0.0569674,-0.069675,-0.0529676,-0.069677,-0.0529678,-0.0489679,-0.0529680,-0.0489681,-0.0489682,-0.0529683,-0.0529684,-0.0489685,-0.0529686,-0.069687,-0.069688,-0.0649689,-0.0649690,-0.0689691,-0.0689692,-0.0649693,-0.069694,-0.069695,-0.0569696,-0.0529697,-0.0529698,-0.069699,-0.069700,-0.069701,-0.0649702,-0.069703,-0.0689704,-0.0649705,-0.0649706,-0.0649707,-0.0689708,-0.069709,-0.0649710,-0.0689711,-0.0689712,-0.0729713,-0.0689714,-0.069715,-0.0649716,-0.069717,-0.069718,-0.0569719,-0.0529720,-0.0529721,-0.0569722,-0.069723,-0.0649724,-0.0649725,-0.0689726,-0.0689727,-0.0729728,-0.0689729,-0.0689730,-0.0689731,-0.0649732,-0.069733,-0.069734,-0.069735,-0.069736,-0.0569737,-0.0529738,-0.0529739,-0.0529740,-0.069741,-0.069742,-0.0649743,-0.0729744,-0.0689745,-0.0689746,-0.0649747,-0.0529748,-0.0449749,-0.049750,-0.0369751,-0.0449752,-0.0489753,-0.069754,-0.069755,-0.0689756,-0.0649757,-0.069758,-0.0569759,-0.0489760,-0.0449761,-0.0529762,-0.0529763,-0.069764,-0.069765,-0.069766,-0.0529767,-0.0529768,-0.0489769,-0.0489770,-0.0529771,-0.0529772,-0.0529773,-0.0569774,-0.0569775,-0.0569776,-0.0569777,-0.0529778,-0.0569779,-0.069780,-0.069781,-0.0649782,-0.0649783,-0.0649784,-0.0529785,-0.069786,-0.0489787,-0.0489788,-0.0489789,-0.0489790,-0.0489791,-0.0529792,-0.0529793,-0.069794,-0.069795,-0.0689796,-0.0649797,-0.0649798,-0.0649799,-0.0649800,-0.069801,-0.069802,-0.069803,-0.0569804,-0.069805,-0.069806,-0.0689807,-0.0689808,-0.0729809,-0.0689810,-0.0689811,-0.0689812,-0.0649813,-0.0649814,-0.069815,-0.0689816,-0.0729817,-0.0769818,-0.0769819,-0.0769820,-0.0769821,-0.0729822,-0.0689823,-0.0649824,-0.0649825,-0.069826,-0.069827,-0.0569828,-0.069829,-0.069830,-0.069831,-0.0689832,-0.0689833,-0.0729834,-0.0769835,-0.0769836,-0.0689837,-0.0729838,-0.0649839,-0.0689840,-0.069841,-0.069842,-0.0569843,-0.069844,-0.069845,-0.069846,-0.069847,-0.069848,-0.0689849,-0.0729850,-0.0689851,-0.0729852,-0.0689853,-0.0689854,-0.069855,-0.0569856,-0.0529857,-0.0529858,-0.069859,-0.069860,-0.0649861,-0.0649862,-0.0689863,-0.069864,-0.069865,-0.0529866,-0.0529867,-0.0529868,-0.069869,-0.069870,-0.0649871,-0.0689872,-0.0689873,-0.069874,-0.069875,-0.0529876,-0.0449877,-0.0529878,-0.0489879,-0.0529880,-0.0529881,-0.0529882,-0.0529883,-0.0529884,-0.0529885,-0.0529886,-0.069887,-0.069888,-0.069889,-0.0649890,-0.0649891,-0.069892,-0.0569893,-0.0489894,-0.0449895,-0.049896,-0.049897,-0.049898,-0.0449899,-0.0529900,-0.0569901,-0.069902,-0.069903,-0.069904,-0.069905,-0.069906,-0.069907,-0.0529908,-0.0529909,-0.0529910,-0.0489911,-0.0529912,-0.0529913,-0.0569914,-0.069915,-0.069916,-0.069917,-0.0649918,-0.069919,-0.069920,-0.0529921,-0.0569922,-0.0569923,-0.069924,-0.0649925,-0.069926,-0.0649927,-0.0689928,-0.0649929,-0.069930,-0.069931,-0.069932,-0.069933,-0.069934,-0.069935,-0.069936,-0.069937,-0.069938,-0.0649939,-0.069940,-0.0649941,-0.0649942,-0.0689943,-0.0689944,-0.0689945,-0.0689946,-0.0649947,-0.0649948,-0.0649949,-0.0689950,-0.069951,-0.0689952,-0.0689953,-0.0689954,-0.0689955,-0.0689956,-0.0689957,-0.0729958,-0.0729959,-0.0689960,-0.0689961,-0.0729962,-0.0689963,-0.0689964,-0.0729965,-0.0689966,-0.0769967,-0.0729968,-0.0729969,-0.0729970,-0.0689971,-0.0649972,-0.069973,-0.0529974,-0.0529975,-0.069976,-0.0649977,-0.0689978,-0.0729979,-0.0769980,-0.0689981,-0.0649982,-0.0569983,-0.0529984,-0.0529985,-0.0489986,-0.0529987,-0.069988,-0.069989,-0.069990,-0.069991,-0.069992,-0.069993,-0.069994,-0.0649995,-0.0649996,-0.0689997,-0.0689998,-0.0649999,-0.0610000,-0.05610001,-0.04810002,-0.04810003,-0.04810004,-0.05210005,-0.0610006,-0.0610007,-0.0610008,-0.0610009,-0.0610010,-0.05610011,-0.05210012,-0.05210013,-0.05210014,-0.0610015,-0.0610016,-0.06410017,-0.0610018,-0.0610019,-0.0610020,-0.0610021,-0.0610022,-0.05210023,-0.0610024,-0.0610025,-0.05210026,-0.05210027,-0.05210028,-0.05210029,-0.0610030,-0.0610031,-0.0610032,-0.06410033,-0.06410034,-0.06810035,-0.0610036,-0.0610037,-0.0610038,-0.0610039,-0.05210040,-0.05610041,-0.0610042,-0.0610043,-0.06810044,-0.0610045,-0.06410046,-0.06810047,-0.06810048,-0.06810049,-0.06410050,-0.06810051,-0.06810052,-0.06410053,-0.06410054,-0.0610055,-0.0610056,-0.05610057,-0.05210058,-0.0610059,-0.0610060,-0.06810061,-0.06810062,-0.07210063,-0.07210064,-0.06810065,-0.0610066,-0.0610067,-0.0610068,-0.05210069,-0.05210070,-0.05210071,-0.05610072,-0.0610073,-0.06410074,-0.0610075,-0.06810076,-0.06810077,-0.06410078,-0.0610079,-0.0610080,-0.05210081,-0.05610082,-0.04810083,-0.05210084,-0.05210085,-0.0610086,-0.05210087,-0.0610088,-0.05210089,-0.0610090,-0.05210091,-0.0610092,-0.0610093,-0.0610094,-0.0610095,-0.0610096,-0.0610097,-0.04810098,-0.04810099,-0.04810100,-0.04810101,-0.04810102,-0.05210103,-0.0610104,-0.0610105,-0.0610106,-0.0610107,-0.0610108,-0.05210109,-0.04810110,-0.05210111,-0.04810112,-0.0610113,-0.0610114,-0.0610115,-0.0610116,-0.0610117,-0.05210118,-0.04810119,-0.04410120,-0.04410121,-0.04810122,-0.04810123,-0.05610124,-0.0610125,-0.0610126,-0.0610127,-0.05210128,-0.05210129,-0.0610130,-0.05610131,-0.05210132,-0.0610133,-0.05610134,-0.05210135,-0.05210136,-0.05210137,-0.04810138,-0.05210139,-0.0610140,-0.0610141,-0.0610142,-0.0610143,-0.0610144,-0.0610145,-0.0610146,-0.0610147,-0.0610148,-0.0610149,-0.06410150,-0.0610151,-0.06410152,-0.06410153,-0.0610154,-0.0610155,-0.0610156,-0.0610157,-0.0610158,-0.0610159,-0.0610160,-0.0610161,-0.06410162,-0.0610163,-0.0610164,-0.0610165,-0.0610166,-0.0610167,-0.06410168,-0.07210169,-0.07210170,-0.07210171,-0.06410172,-0.06410173,-0.0610174,-0.0610175,-0.0610176,-0.0610177,-0.0610178,-0.06410179,-0.06810180,-0.06810181,-0.06810182,-0.06810183,-0.06810184,-0.0610185,-0.06410186,-0.0610187,-0.06410188,-0.06810189,-0.0610190,-0.0610191,-0.06410192,-0.05210193,-0.06810194,-0.06810195,-0.06410196,-0.0610197,-0.0610198,-0.0610199,-0.07610200,-0.04410201,-0.0210202,-0.08410203,-0.05610204,-0.0610205,-0.06810206,-0.0810207,-0.09210208,-0.11210209,-0.11210210,-0.11610211,-0.11610212,-0.11610213,-0.11210214,-0.09610215,-0.08810216,-0.08410217,-0.0810218,-0.0810219,-0.0810220,-0.08410221,-0.08410222,-0.0810223,-0.07610224,-0.06810225,-0.0610226,-0.0610227,-0.04810228,-0.04810229,-0.04810230,-0.05210231,-0.05210232,-0.0610233,-0.0610234,-0.0610235,-0.05210236,-0.05210237,-0.04810238,-0.05210239,-0.05210240,-0.04810241,-0.04410242,-0.0410243,-0.03210244,-0.02810245,-0.0210246,-0.02810247,-0.02810248,-0.03210249,-0.03610250,-0.03210251,-0.03210252,-0.03210253,-0.02410254,-0.0210255,-0.0210256,-0.01610257,-0.0210258,-0.01610259,-0.01610260,-0.01610261,-0.01610262,-0.01210263,-0.01210264,-0.01210265,-0.00810266,-0.01210267,-0.01210268,-0.00410269,-0.00810270,