Record Length,2500,Points,0.0,-104.0000021E-3,
Sample Interval,2.0000001E-3,s,2.0000001E-3,40.00000283E-3,
Trigger Point,0.0,Samples,4.00000019E-3,168.00001264E-3,
,,,6.00000005E-3,192.00000167E-3,
,,,8.000000380E-3,136.0000074E-3,
,,,10.0000007E-3,-16.0000008E-3,
Source,CH2,,12.0000001E-3,-128.0000061E-3,
Vertical Units,Volts,,14.0000004E-3,-192.00000167E-3,
Vertical Scale,200.00000950E-3,,16.0000008E-3,-160.00001132E-3,
Vertical Offset,0,,18.0000011E-3,-24.00000021E-3,
Horizontal Units,s,,20.0000014E-3,112.0000035E-3,
Horizontal Scale,500.000023749E-3,,22.00000174E-3,192.00000167E-3,
Pt Fmt,Y,,24.00000021E-3,168.00001264E-3,
Yzero,0.0,,26.00000054E-3,32.00000152E-3,
Probe Atten,1.000000,,28.00000086E-3,-104.0000021E-3,
,,,30.00000119E-3,-208.00000429E-3,
Note,TBS 1102B - 13:04:11   27/08/2018,,32.00000152E-3,-184.00001526E-3,
,,,34.00000185E-3,-56.000001729E-3,
,,,36.00000218E-3,88.000006974E-3,
,,,38.00000250E-3,176.00001395E-3,
,,,40.00000283E-3,176.00001395E-3,
,,,42.00000316E-3,88.000006974E-3,
,,,44.00000349E-3,-64.000003040E-3,
,,,46.00000381E-3,-184.00001526E-3,
,,,48.00000042E-3,-192.00000167E-3,
,,,50.00000075E-3,-112.0000035E-3,
,,,52.00000107E-3,40.00000283E-3,
,,,54.00000140E-3,176.00001395E-3,
,,,56.000001729E-3,200.00000298E-3,
,,,58.000002056E-3,128.0000061E-3,
,,,60.000002384E-3,-16.0000008E-3,
,,,62.000002712E-3,-144.0000087E-3,
,,,64.000003040E-3,-192.00000167E-3,
,,,65.999999642E-3,-168.00001264E-3,
,,,68.000003695E-3,8.000000380E-3,
,,,70.000000298E-3,112.0000035E-3,
,,,72.000004351E-3,216.00000560E-3,
,,,74.000000954E-3,176.00001395E-3,
,,,76.000005007E-3,24.00000021E-3,
,,,78.000001609E-3,-112.0000035E-3,
,,,80.000005662E-3,-208.00000429E-3,
,,,82.000002265E-3,-184.00001526E-3,
,,,84.000006318E-3,-56.000001729E-3,
,,,86.000002921E-3,88.000006974E-3,
,,,88.000006974E-3,200.00000298E-3,
,,,90.000003576E-3,168.00001264E-3,
,,,92.000007629E-3,88.000006974E-3,
,,,94.000004232E-3,-64.000003040E-3,
,,,96.000000834E-3,-192.00000167E-3,
,,,98.000004888E-3,-192.00000167E-3,
,,,100.0000015E-3,-112.0000035E-3,
,,,102.0000055E-3,40.00000283E-3,
,,,104.0000021E-3,168.00001264E-3,
,,,106.0000062E-3,184.00001526E-3,
,,,108.0000028E-3,128.0000061E-3,
,,,110.0000069E-3,-16.0000008E-3,
,,,112.0000035E-3,-144.0000087E-3,
,,,114.0000075E-3,-208.00000429E-3,
,,,116.0000041E-3,-160.00001132E-3,
,,,118.0000082E-3,-8.000000380E-3,
,,,120.0000048E-3,120.0000048E-3,
,,,122.0000088E-3,200.00000298E-3,
,,,124.0000054E-3,168.00001264E-3,
,,,126.0000020E-3,32.00000152E-3,
,,,128.0000061E-3,-104.0000021E-3,
,,,130.0000101E-3,-208.00000429E-3,
,,,131.9999993E-3,-168.00001264E-3,
,,,134.0000033E-3,-32.00000152E-3,
,,,136.0000074E-3,88.000006974E-3,
,,,138.0000114E-3,192.00000167E-3,
,,,140.0000006E-3,176.00001395E-3,
,,,142.0000046E-3,80.000005662E-3,
,,,144.0000087E-3,-56.000001729E-3,
,,,146.0000128E-3,-192.00000167E-3,
,,,148.0000019E-3,-176.00001395E-3,
,,,150.00000596E-3,-104.0000021E-3,
,,,152.00001001E-3,32.00000152E-3,
,,,154.00001407E-3,160.00001132E-3,
,,,156.00000322E-3,184.00001526E-3,
,,,158.00000727E-3,120.0000048E-3,
,,,160.00001132E-3,-16.0000008E-3,
,,,162.00000048E-3,-128.0000061E-3,
,,,164.00000453E-3,-200.00000298E-3,
,,,166.00000858E-3,-144.0000087E-3,
,,,168.00001264E-3,0.0,
,,,170.00000179E-3,120.0000048E-3,
,,,172.00000584E-3,208.00000429E-3,
,,,174.00000989E-3,168.00001264E-3,
,,,176.00001395E-3,24.00000021E-3,
,,,178.00000310E-3,-104.0000021E-3,
,,,180.00000715E-3,-208.00000429E-3,
,,,182.00001121E-3,-176.00001395E-3,
,,,184.00001526E-3,-40.00000283E-3,
,,,186.00000441E-3,96.000000834E-3,
,,,188.00000846E-3,192.00000167E-3,
,,,190.00001252E-3,176.00001395E-3,
,,,192.00000167E-3,72.000004351E-3,
,,,194.00000572E-3,-72.000004351E-3,
,,,196.00000978E-3,-184.00001526E-3,
,,,198.00001383E-3,-184.00001526E-3,
,,,200.00000298E-3,-96.000000834E-3,
,,,202.00000703E-3,40.00000283E-3,
,,,204.00001109E-3,160.00001132E-3,
,,,206.00001514E-3,192.00000167E-3,
,,,208.00000429E-3,120.0000048E-3,
,,,210.00000834E-3,-16.0000008E-3,
,,,212.00001240E-3,-152.00001001E-3,
,,,214.00001645E-3,-200.00000298E-3,
,,,216.00000560E-3,-152.00001001E-3,
,,,218.00000966E-3,0.0,
,,,220.00001371E-3,128.0000061E-3,
,,,222.00001776E-3,208.00000429E-3,
,,,224.00000691E-3,160.00001132E-3,
,,,226.00001097E-3,16.0000008E-3,
,,,228.00001502E-3,-112.0000035E-3,
,,,230.00000417E-3,-208.00000429E-3,
,,,232.00000823E-3,-168.00001264E-3,
,,,234.00001228E-3,-24.00000021E-3,
,,,236.00001633E-3,80.000005662E-3,
,,,238.00000548E-3,200.00000298E-3,
,,,240.00000954E-3,176.00001395E-3,
,,,242.00001359E-3,72.000004351E-3,
,,,244.00001764E-3,-64.000003040E-3,
,,,246.00000679E-3,-184.00001526E-3,
,,,248.00001085E-3,-176.00001395E-3,
,,,250.00000000E-3,-96.000000834E-3,
,,,252.00000405E-3,48.00000042E-3,
,,,254.00000811E-3,176.00001395E-3,
,,,256.00001216E-3,200.00000298E-3,
,,,258.00001621E-3,128.0000061E-3,
,,,260.00002027E-3,-16.0000008E-3,
,,,262.00002432E-3,-168.00001264E-3,
,,,263.99999857E-3,-192.00000167E-3,
,,,266.00000262E-3,-152.00001001E-3,
,,,268.00000668E-3,0.0,
,,,270.00001073E-3,128.0000061E-3,
,,,272.00001478E-3,200.00000298E-3,
,,,274.00001884E-3,152.00001001E-3,
,,,276.00002289E-3,32.00000152E-3,
,,,278.00002694E-3,-120.0000048E-3,
,,,280.00000119E-3,-208.00000429E-3,
,,,282.00000525E-3,-176.00001395E-3,
,,,284.00000930E-3,-48.00000042E-3,
,,,286.00001335E-3,104.0000021E-3,
,,,288.00001740E-3,192.00000167E-3,
,,,290.00002146E-3,168.00001264E-3,
,,,292.00002551E-3,56.000001729E-3,
,,,293.99999976E-3,-72.000004351E-3,
,,,296.00000381E-3,-208.00000429E-3,
,,,298.00000787E-3,-200.00000298E-3,
,,,300.00001192E-3,-104.0000021E-3,
,,,302.00001597E-3,40.00000283E-3,
,,,304.00002003E-3,160.00001132E-3,
,,,306.00002408E-3,184.00001526E-3,
,,,308.00002813E-3,112.0000035E-3,
,,,310.00000238E-3,-40.00000283E-3,
,,,312.00000644E-3,-176.00001395E-3,
,,,314.00001049E-3,-216.00000560E-3,
,,,316.00001454E-3,-144.0000087E-3,
,,,318.00001860E-3,0.0,
,,,320.00002265E-3,128.0000061E-3,
,,,322.00002670E-3,200.00000298E-3,
,,,324.00000095E-3,144.0000087E-3,
,,,326.00000501E-3,0.0,
,,,328.00000906E-3,-136.0000074E-3,
,,,330.00001311E-3,-208.00000429E-3,
,,,332.00001717E-3,-176.00001395E-3,
,,,334.00002122E-3,-48.00000042E-3,
,,,336.00002527E-3,88.000006974E-3,
,,,338.00002933E-3,192.00000167E-3,
,,,340.00000358E-3,160.00001132E-3,
,,,342.00000763E-3,56.000001729E-3,
,,,344.00001168E-3,-72.000004351E-3,
,,,346.00001574E-3,-208.00000429E-3,
,,,348.00001979E-3,-192.00000167E-3,
,,,350.00002384E-3,-80.000005662E-3,
,,,352.00002789E-3,48.00000042E-3,
,,,354.00000215E-3,176.00001395E-3,
,,,356.00000620E-3,192.00000167E-3,
,,,358.00001025E-3,112.0000035E-3,
,,,360.00001431E-3,-40.00000283E-3,
,,,362.00001836E-3,-168.00001264E-3,
,,,364.00002241E-3,-192.00000167E-3,
,,,366.00002646E-3,-136.0000074E-3,
,,,368.00003052E-3,8.000000380E-3,
,,,370.00000477E-3,144.0000087E-3,
,,,372.00000882E-3,216.00000560E-3,
,,,374.00001287E-3,168.00001264E-3,
,,,376.00001693E-3,32.00000152E-3,
,,,378.00002098E-3,-96.000000834E-3,
,,,380.00002503E-3,-184.00001526E-3,
,,,382.00002909E-3,-136.0000074E-3,
,,,384.00000334E-3,16.0000008E-3,
,,,386.00000739E-3,176.00001395E-3,
,,,388.00001144E-3,296.00000381E-3,
,,,390.00001550E-3,280.00000119E-3,
,,,392.00001955E-3,160.00001132E-3,
,,,394.00002360E-3,24.00000021E-3,
,,,396.00002766E-3,-72.000004351E-3,
,,,398.00003171E-3,-96.000000834E-3,
,,,400.00000596E-3,-16.0000008E-3,
,,,402.00001001E-3,88.000006974E-3,
,,,404.000014067E-3,152.00001001E-3,
,,,406.000018120E-3,120.0000048E-3,
,,,408.000022173E-3,24.00000021E-3,
,,,410.000026226E-3,-144.0000087E-3,
,,,412.000030279E-3,-272.00001478E-3,
,,,414.000034332E-3,-304.00002003E-3,
,,,416.000008583E-3,-240.00000954E-3,
,,,418.000012636E-3,-88.000006974E-3,
,,,420.000016689E-3,48.00000042E-3,
,,,422.000020742E-3,112.0000035E-3,
,,,424.000024796E-3,80.000005662E-3,
,,,426.000028849E-3,-64.000003040E-3,
,,,428.000032902E-3,-192.00000167E-3,
,,,430.000007153E-3,-263.99999857E-3,
,,,432.000011206E-3,-208.00000429E-3,
,,,434.000015259E-3,-48.00000042E-3,
,,,436.000019312E-3,88.000006974E-3,
,,,438.000023365E-3,192.00000167E-3,
,,,440.000027418E-3,168.00001264E-3,
,,,442.000031471E-3,56.000001729E-3,
,,,444.000035524E-3,-80.000005662E-3,
,,,446.000009775E-3,-192.00000167E-3,
,,,448.000013828E-3,-160.00001132E-3,
,,,450.000017881E-3,-64.000003040E-3,
,,,452.000021935E-3,72.000004351E-3,
,,,454.000025988E-3,192.00000167E-3,
,,,456.000030041E-3,208.00000429E-3,
,,,458.000034094E-3,128.0000061E-3,
,,,460.000008345E-3,-8.000000380E-3,
,,,462.000012398E-3,-152.00001001E-3,
,,,464.000016451E-3,-184.00001526E-3,
,,,466.000020504E-3,-128.0000061E-3,
,,,468.000024557E-3,24.00000021E-3,
,,,470.000028610E-3,152.00001001E-3,
,,,472.000032663E-3,208.00000429E-3,
,,,474.000036716E-3,160.00001132E-3,
,,,476.000010967E-3,16.0000008E-3,
,,,478.000015020E-3,-112.0000035E-3,
,,,480.000019073E-3,-192.00000167E-3,
,,,482.000023127E-3,-160.00001132E-3,
,,,484.000027180E-3,-24.00000021E-3,
,,,486.000031233E-3,120.0000048E-3,
,,,488.000035286E-3,200.00000298E-3,
,,,490.000009537E-3,176.00001395E-3,
,,,492.000013590E-3,56.000001729E-3,
,,,494.000017643E-3,-80.000005662E-3,
,,,496.000021696E-3,-176.00001395E-3,
,,,498.000025749E-3,-168.00001264E-3,
,,,500.000000000E-3,-72.000004351E-3,
,,,502.000033855E-3,72.000004351E-3,
,,,504.000008106E-3,176.00001395E-3,
,,,506.000041962E-3,192.00000167E-3,
,,,508.000016212E-3,128.0000061E-3,
,,,510.000050068E-3,-32.00000152E-3,
,,,512.000024319E-3,-160.00001132E-3,
,,,513.999998569E-3,-192.00000167E-3,
,,,516.000032425E-3,-120.0000048E-3,
,,,518.000006676E-3,24.00000021E-3,
,,,520.000040531E-3,160.00001132E-3,
,,,522.000014782E-3,208.00000429E-3,
,,,524.000048637E-3,152.00001001E-3,
,,,526.000022888E-3,16.0000008E-3,
,,,527.999997139E-3,-128.0000061E-3,
,,,530.000030994E-3,-200.00000298E-3,
,,,532.000005245E-3,-160.00001132E-3,
,,,534.000039101E-3,-32.00000152E-3,
,,,536.000013351E-3,96.000000834E-3,
,,,538.000047207E-3,192.00000167E-3,
,,,540.000021458E-3,176.00001395E-3,
,,,542.000055313E-3,56.000001729E-3,
,,,544.000029564E-3,-72.000004351E-3,
,,,546.000003815E-3,-192.00000167E-3,
,,,548.000037670E-3,-176.00001395E-3,
,,,550.000011921E-3,-80.000005662E-3,
,,,552.000045776E-3,80.000005662E-3,
,,,554.000020027E-3,184.00001526E-3,
,,,556.000053883E-3,192.00000167E-3,
,,,558.000028133E-3,112.0000035E-3,
,,,560.000002384E-3,-24.00000021E-3,
,,,562.000036240E-3,-168.00001264E-3,
,,,564.000010490E-3,-176.00001395E-3,
,,,566.000044346E-3,-112.0000035E-3,
,,,568.000018597E-3,32.00000152E-3,
,,,570.000052452E-3,152.00001001E-3,
,,,572.000026703E-3,200.00000298E-3,
,,,574.000000954E-3,152.00001001E-3,
,,,576.000034809E-3,24.00000021E-3,
,,,578.000009060E-3,-120.0000048E-3,
,,,580.000042915E-3,-200.00000298E-3,
,,,582.000017166E-3,-160.00001132E-3,
,,,584.000051022E-3,-24.00000021E-3,
,,,586.000025272E-3,112.0000035E-3,
,,,587.999999523E-3,216.00000560E-3,
,,,590.000033379E-3,184.00001526E-3,
,,,592.000007629E-3,56.000001729E-3,
,,,594.000041485E-3,-80.000005662E-3,
,,,596.000015736E-3,-192.00000167E-3,
,,,598.000049591E-3,-184.00001526E-3,
,,,600.000023842E-3,-64.000003040E-3,
,,,602.000057697E-3,80.000005662E-3,
,,,604.000031948E-3,176.00001395E-3,
,,,606.000006199E-3,184.00001526E-3,
,,,608.000040054E-3,120.0000048E-3,
,,,610.000014305E-3,-48.00000042E-3,
,,,612.000048161E-3,-168.00001264E-3,
,,,614.000022411E-3,-184.00001526E-3,
,,,616.000056267E-3,-128.0000061E-3,
,,,618.000030518E-3,16.0000008E-3,
,,,620.000004768E-3,144.0000087E-3,
,,,622.000038624E-3,192.00000167E-3,
,,,624.000012875E-3,144.0000087E-3,
,,,626.000046730E-3,8.000000380E-3,
,,,628.000020981E-3,-120.0000048E-3,
,,,630.000054836E-3,-208.00000429E-3,
,,,632.000029087E-3,-160.00001132E-3,
,,,634.000003338E-3,-16.0000008E-3,
,,,636.000037193E-3,120.0000048E-3,
,,,638.000011444E-3,208.00000429E-3,
,,,640.000045300E-3,168.00001264E-3,
,,,642.000019550E-3,40.00000283E-3,
,,,644.000053406E-3,-96.000000834E-3,
,,,646.000027657E-3,-192.00000167E-3,
,,,648.000001907E-3,-184.00001526E-3,
,,,650.000035763E-3,-64.000003040E-3,
,,,652.000010014E-3,72.000004351E-3,
,,,654.000043869E-3,184.00001526E-3,
,,,656.000018120E-3,176.00001395E-3,
,,,658.000051975E-3,104.0000021E-3,
,,,660.000026226E-3,-48.00000042E-3,
,,,662.000060081E-3,-176.00001395E-3,
,,,664.000034332E-3,-200.00000298E-3,
,,,666.000008583E-3,-112.0000035E-3,
,,,668.000042439E-3,8.000000380E-3,
,,,670.000016689E-3,136.0000074E-3,
,,,672.000050545E-3,200.00000298E-3,
,,,674.000024796E-3,128.0000061E-3,
,,,676.000058651E-3,0.0,
,,,678.000032902E-3,-176.00001395E-3,
,,,680.000007153E-3,-232.00000823E-3,
,,,682.000041008E-3,-168.00001264E-3,
,,,684.000015259E-3,-24.00000021E-3,
,,,686.000049114E-3,104.0000021E-3,
,,,688.000023365E-3,192.00000167E-3,
,,,690.000057220E-3,144.0000087E-3,
,,,692.000031471E-3,24.00000021E-3,
,,,694.000005722E-3,-112.0000035E-3,
,,,696.000039577E-3,-224.00000691E-3,
,,,698.000013828E-3,-200.00000298E-3,
,,,700.000047684E-3,-80.000005662E-3,
,,,702.000021935E-3,56.000001729E-3,
,,,704.000055790E-3,168.00001264E-3,
,,,706.000030041E-3,168.00001264E-3,
,,,708.000004292E-3,88.000006974E-3,
,,,710.000038147E-3,-64.000003040E-3,
,,,712.000012398E-3,-192.00000167E-3,
,,,714.000046253E-3,-208.00000429E-3,
,,,716.000020504E-3,-128.0000061E-3,
,,,718.000054359E-3,16.0000008E-3,
,,,720.000028610E-3,152.00001001E-3,
,,,722.000062466E-3,192.00000167E-3,
,,,724.000036716E-3,144.0000087E-3,
,,,726.000010967E-3,-8.000000380E-3,
,,,728.000044823E-3,-144.0000087E-3,
,,,730.000019073E-3,-208.00000429E-3,
,,,732.000052929E-3,-160.00001132E-3,
,,,734.000027180E-3,-8.000000380E-3,
,,,736.000061035E-3,128.0000061E-3,
,,,738.000035286E-3,208.00000429E-3,
,,,740.000009537E-3,168.00001264E-3,
,,,742.000043392E-3,8.000000380E-3,
,,,744.000017643E-3,-96.000000834E-3,
,,,746.000051498E-3,-208.00000429E-3,
,,,748.000025749E-3,-192.00000167E-3,
,,,750.000059605E-3,-64.000003040E-3,
,,,752.000033855E-3,72.000004351E-3,
,,,754.000008106E-3,184.00001526E-3,
,,,756.000041962E-3,176.00001395E-3,
,,,758.000016212E-3,88.000006974E-3,
,,,760.000050068E-3,-56.000001729E-3,
,,,762.000024319E-3,-176.00001395E-3,
,,,764.000058174E-3,-200.00000298E-3,
,,,766.000032425E-3,-112.0000035E-3,
,,,768.000006676E-3,40.00000283E-3,
,,,770.000040531E-3,152.00001001E-3,
,,,772.000014782E-3,208.00000429E-3,
,,,774.000048637E-3,136.0000074E-3,
,,,776.000022888E-3,-8.000000380E-3,
,,,778.000056744E-3,-152.00001001E-3,
,,,780.000030994E-3,-208.00000429E-3,
,,,782.000064850E-3,-160.00001132E-3,
,,,784.000039101E-3,-8.000000380E-3,
,,,786.000013351E-3,128.0000061E-3,
,,,788.000047207E-3,192.00000167E-3,
,,,790.000021458E-3,160.00001132E-3,
,,,792.000055313E-3,40.00000283E-3,
,,,794.000029564E-3,-112.0000035E-3,
,,,796.000063419E-3,-200.00000298E-3,
,,,798.000037670E-3,-176.00001395E-3,
,,,800.000011921E-3,-56.000001729E-3,
,,,802.000045776E-3,64.000003040E-3,
,,,804.000020027E-3,184.00001526E-3,
,,,806.000053883E-3,176.00001395E-3,
,,,808.000028133E-3,96.000000834E-3,
,,,810.000061989E-3,-48.00000042E-3,
,,,812.000036240E-3,-176.00001395E-3,
,,,814.000010490E-3,-200.00000298E-3,
,,,816.000044346E-3,-112.0000035E-3,
,,,818.000018597E-3,24.00000021E-3,
,,,820.000052452E-3,152.00001001E-3,
,,,822.000026703E-3,192.00000167E-3,
,,,824.000060558E-3,136.0000074E-3,
,,,826.000034809E-3,-8.000000380E-3,
,,,828.000068665E-3,-128.0000061E-3,
,,,830.000042915E-3,-192.00000167E-3,
,,,832.000017166E-3,-152.00001001E-3,
,,,834.000051022E-3,-24.00000021E-3,
,,,836.000025272E-3,104.0000021E-3,
,,,838.000059128E-3,176.00001395E-3,
,,,840.000033379E-3,160.00001132E-3,
,,,842.000067234E-3,48.00000042E-3,
,,,844.000041485E-3,-80.000005662E-3,
,,,846.000015736E-3,-176.00001395E-3,
,,,848.000049591E-3,-176.00001395E-3,
,,,850.000023842E-3,-88.000006974E-3,
,,,852.000057697E-3,40.00000283E-3,
,,,854.000031948E-3,152.00001001E-3,
,,,856.000065804E-3,160.00001132E-3,
,,,858.000040054E-3,96.000000834E-3,
,,,860.000014305E-3,-24.00000021E-3,
,,,862.000048161E-3,-144.0000087E-3,
,,,864.000022411E-3,-176.00001395E-3,
,,,866.000056267E-3,-128.0000061E-3,
,,,868.000030518E-3,0.0,
,,,870.000064373E-3,104.0000021E-3,
,,,872.000038624E-3,160.00001132E-3,
,,,874.000012875E-3,128.0000061E-3,
,,,876.000046730E-3,32.00000152E-3,
,,,878.000020981E-3,-80.000005662E-3,
,,,880.000054836E-3,-144.0000087E-3,
,,,882.000029087E-3,-152.00001001E-3,
,,,884.000062943E-3,-64.000003040E-3,
,,,886.000037193E-3,48.00000042E-3,
,,,888.000071049E-3,144.0000087E-3,
,,,890.000045300E-3,152.00001001E-3,
,,,892.000019550E-3,80.000005662E-3,
,,,894.000053406E-3,-24.00000021E-3,
,,,896.000027657E-3,-136.0000074E-3,
,,,898.000061512E-3,-168.00001264E-3,
,,,900.000035763E-3,-104.0000021E-3,
,,,902.000069618E-3,8.000000380E-3,
,,,904.000043869E-3,112.0000035E-3,
,,,906.000018120E-3,152.00001001E-3,
,,,908.000051975E-3,112.0000035E-3,
,,,910.000026226E-3,32.00000152E-3,
,,,912.000060081E-3,-112.0000035E-3,
,,,914.000034332E-3,-160.00001132E-3,
,,,916.000068188E-3,-120.0000048E-3,
,,,918.000042439E-3,-24.00000021E-3,
,,,920.000016689E-3,88.000006974E-3,
,,,922.000050545E-3,152.00001001E-3,
,,,924.000024796E-3,136.0000074E-3,
,,,926.000058651E-3,40.00000283E-3,
,,,928.000032902E-3,-64.000003040E-3,
,,,930.000066757E-3,-152.00001001E-3,
,,,932.000041008E-3,-144.0000087E-3,
,,,934.000015259E-3,-56.000001729E-3,
,,,936.000049114E-3,56.000001729E-3,
,,,938.000023365E-3,152.00001001E-3,
,,,940.000057220E-3,152.00001001E-3,
,,,942.000031471E-3,72.000004351E-3,
,,,944.000065327E-3,-40.00000283E-3,
,,,946.000039577E-3,-160.00001132E-3,
,,,948.000073433E-3,-152.00001001E-3,
,,,950.000047684E-3,-88.000006974E-3,
,,,952.000021935E-3,32.00000152E-3,
,,,954.000055790E-3,144.0000087E-3,
,,,956.000030041E-3,152.00001001E-3,
,,,958.000063896E-3,112.0000035E-3,
,,,960.000038147E-3,-8.000000380E-3,
,,,962.000072002E-3,-128.0000061E-3,
,,,964.000046253E-3,-152.00001001E-3,
,,,966.000020504E-3,-120.0000048E-3,
,,,968.000054359E-3,-8.000000380E-3,
,,,970.000028610E-3,112.0000035E-3,
,,,972.000062466E-3,152.00001001E-3,
,,,974.000036716E-3,136.0000074E-3,
,,,976.000070572E-3,32.00000152E-3,
,,,978.000044823E-3,-104.0000021E-3,
,,,980.000019073E-3,-176.00001395E-3,
,,,982.000052929E-3,-1.0240000,
,,,984.000027180E-3,-1.0240000,
,,,986.000061035E-3,-1.0240000,
,,,988.000035286E-3,-1.0240000,
,,,990.000069141E-3,-1.0240000,
,,,992.000043392E-3,-1.0240000,
,,,994.000017643E-3,-1.0240000,
,,,996.000051498E-3,-1.0240000,
,,,998.000025749E-3,-1.0240000,
,,,1.000000,-1.0240000,
,,,1.0020001,-1.0240000,
,,,1.0040001,-1.0240000,
,,,1.0060000,-1.0240000,
,,,1.0080000,-1.0240000,
,,,1.0100000,-1.0240000,
,,,1.0120001,-1.0240000,
,,,1.0140001,-1.0240000,
,,,1.0160000,-1.0240000,
,,,1.0180000,-1.0240000,
,,,1.0200001,-1.0240000,
,,,1.0220001,-1.0240000,
,,,1.0240000,-1.0240000,
,,,1.0260000,-1.0240000,
,,,1.0280000,-1.0240000,
,,,1.0300001,-1.0240000,
,,,1.0320001,-1.0240000,
,,,1.0340000,-1.0240000,
,,,1.0360000,-1.0240000,
,,,1.0380001,-1.0240000,
,,,1.0400001,-1.0240000,
,,,1.0420001,-1.0240000,
,,,1.0440000,-1.0240000,
,,,1.0460000,-1.0240000,
,,,1.0480001,-1.0240000,
,,,1.0500001,-1.0240000,
,,,1.0520000,-1.0240000,
,,,1.0540000,-1.0240000,
,,,1.0560000,-1.0240000,
,,,1.0580001,-1.0240000,
,,,1.0600001,-1.0240000,
,,,1.0620000,-1.0240000,
,,,1.0640000,-1.0240000,
,,,1.0660001,-1.0240000,
,,,1.0680001,-1.0240000,
,,,1.0700001,-1.0240000,
,,,1.0720000,-1.0240000,
,,,1.0740000,-1.0240000,
,,,1.0760001,-1.0240000,
,,,1.0780001,-1.0240000,
,,,1.0800000,-1.0240000,
,,,1.0820000,-1.0240000,
,,,1.0840001,-1.0240000,
,,,1.0860001,-1.0240000,
,,,1.0880001,-1.0240000,
,,,1.0900000,-1.0240000,
,,,1.0920000,-1.0240000,
,,,1.0940001,-1.0240000,
,,,1.0960001,-1.0240000,
,,,1.0980000,-1.0240000,
,,,1.1000000,-1.0240000,
,,,1.1020000,-1.0240000,
,,,1.1040001,-1.0240000,
,,,1.1060001,-1.0240000,
,,,1.1080000,-1.0240000,
,,,1.1100000,-1.0240000,
,,,1.1120001,-1.0240000,
,,,1.1140001,-1.0240000,
,,,1.1160001,-1.0240000,
,,,1.1180000,-1.0240000,
,,,1.1200000,-1.0240000,
,,,1.1220001,-1.0240000,
,,,1.1240001,-1.0240000,
,,,1.1260000,-1.0240000,
,,,1.1280000,-1.0240000,
,,,1.1300000,-1.0240000,
,,,1.1320001,-1.0240000,
,,,1.1340001,-1.0240000,
,,,1.1360000,-1.0240000,
,,,1.1380000,-1.0240000,
,,,1.1400001,-1.0240000,
,,,1.1420001,-1.0240000,
,,,1.1440001,-1.0240000,
,,,1.1460000,-1.0240000,
,,,1.1480000,-1.0240000,
,,,1.1500001,-1.0240000,
,,,1.1520001,-1.0240000,
,,,1.1540000,-1.0240000,
,,,1.1560000,-1.0240000,
,,,1.1580001,-1.0240000,
,,,1.1600001,-1.0240000,
,,,1.1620001,-1.0240000,
,,,1.1640000,-1.0240000,
,,,1.1660000,-1.0240000,
,,,1.1680001,-1.0240000,
,,,1.1700001,-1.0240000,
,,,1.1720001,-1.0240000,
,,,1.1740000,-1.0240000,
,,,1.1760000,-1.0240000,
,,,1.1780001,-1.0240000,
,,,1.1800001,-1.0240000,
,,,1.1820000,-1.0240000,
,,,1.1840000,-1.0240000,
,,,1.1860001,-1.0240000,
,,,1.1880001,-1.0240000,
,,,1.1900001,-1.0240000,
,,,1.1920000,-1.0240000,
,,,1.1940000,-1.0240000,
,,,1.1960001,-1.0240000,
,,,1.1980001,-1.0240000,
,,,1.2000000,-1.0240000,
,,,1.2020000,-1.0240000,
,,,1.2040001,-1.0240000,
,,,1.2060001,-1.0240000,
,,,1.2080001,-1.0240000,
,,,1.2100000,-1.0240000,
,,,1.2120000,-1.0240000,
,,,1.2140001,-1.0240000,
,,,1.2160001,-1.0240000,
,,,1.2180001,-1.0240000,
,,,1.2200000,-1.0240000,
,,,1.2220000,-1.0240000,
,,,1.2240001,-1.0240000,
,,,1.2260001,-1.0240000,
,,,1.2280000,-1.0240000,
,,,1.2300000,-1.0240000,
,,,1.2320001,-1.0240000,
,,,1.2340001,-1.0240000,
,,,1.2360001,-1.0240000,
,,,1.2380000,-1.0240000,
,,,1.2400000,-1.0240000,
,,,1.2420001,-1.0240000,
,,,1.2440001,-1.0240000,
,,,1.2460001,-1.0240000,
,,,1.2480000,-1.0240000,
,,,1.2500000,-1.0240000,
,,,1.2520001,-1.0240000,
,,,1.2540001,-1.0240000,
,,,1.2560000,-1.0240000,
,,,1.2580000,-1.0240000,
,,,1.2600001,-1.0240000,
,,,1.2620001,-1.0240000,
,,,1.2640001,-1.0240000,
,,,1.2660000,-1.0240000,
,,,1.2680000,-1.0240000,
,,,1.2700001,-1.0240000,
,,,1.2720001,-1.0240000,
,,,1.2740000,-1.0240000,
,,,1.2760000,-1.0240000,
,,,1.2780001,-1.0240000,
,,,1.2800001,-1.0240000,
,,,1.2820001,-1.0240000,
,,,1.2840000,-1.0240000,
,,,1.2860000,-1.0240000,
,,,1.2880001,-1.0240000,
,,,1.2900001,-1.0240000,
,,,1.2920001,-1.0240000,
,,,1.2940000,-1.0240000,
,,,1.2960000,-1.0240000,
,,,1.2980001,-1.0240000,
,,,1.3000001,-1.0240000,
,,,1.3020000,-1.0240000,
,,,1.3040000,-1.0240000,
,,,1.3060001,-1.0240000,
,,,1.3080001,-1.0240000,
,,,1.3100001,-1.0240000,
,,,1.3120000,-1.0240000,
,,,1.3140000,-1.0240000,
,,,1.3160001,-1.0240000,
,,,1.3180001,-1.0240000,
,,,1.3200001,-1.0240000,
,,,1.3220000,-1.0240000,
,,,1.3240001,-1.0240000,
,,,1.3260001,-1.0240000,
,,,1.3280001,-1.0240000,
,,,1.3300000,-1.0240000,
,,,1.3320000,-1.0240000,
,,,1.3340001,-1.0240000,
,,,1.3360001,-1.0240000,
,,,1.3380001,-1.0240000,
,,,1.3400000,-1.0240000,
,,,1.3420000,-1.0240000,
,,,1.3440001,-1.0240000,
,,,1.3460001,-1.0240000,
,,,1.3480000,-1.0240000,
,,,1.3500000,-1.0240000,
,,,1.3520001,-1.0240000,
,,,1.3540001,-1.0240000,
,,,1.3560001,-1.0240000,
,,,1.3580000,-1.0240000,
,,,1.3600000,-1.0240000,
,,,1.3620001,-1.0240000,
,,,1.3640001,-1.0240000,
,,,1.3660001,-1.0240000,
,,,1.3680000,-1.0240000,
,,,1.3700001,-1.0240000,
,,,1.3720001,-1.0240000,
,,,1.3740001,-1.0240000,
,,,1.3760000,-1.0240000,
,,,1.3780000,-1.0240000,
,,,1.3800001,-1.0240000,
,,,1.3820001,-1.0240000,
,,,1.3840001,-1.0240000,
,,,1.3860000,-1.0240000,
,,,1.3880000,-1.0240000,
,,,1.3900001,-1.0240000,
,,,1.3920001,-1.0240000,
,,,1.3940001,-1.0240000,
,,,1.3960000,-1.0240000,
,,,1.3980001,-1.0240000,
,,,1.4000001,-1.0240000,
,,,1.4020001,-1.0240000,
,,,1.4040000,-1.0240000,
,,,1.4060000,-1.0240000,
,,,1.4080001,-1.0240000,
,,,1.4100001,-1.0240000,
,,,1.4120001,-1.0240000,
,,,1.4140000,-1.0240000,
,,,1.4160000,-1.0240000,
,,,1.4180001,-1.0240000,
,,,1.4200001,-1.0240000,
,,,1.4220001,-1.0240000,
,,,1.4240000,-1.0240000,
,,,1.4260001,-1.0240000,
,,,1.4280001,-1.0240000,
,,,1.4300001,-1.0240000,
,,,1.4320000,-1.0240000,
,,,1.4340000,-1.0240000,
,,,1.4360001,-1.0240000,
,,,1.4380001,-1.0240000,
,,,1.4400001,-1.0240000,
,,,1.4420000,-1.0240000,
,,,1.4440001,-1.0240000,
,,,1.4460001,-1.0240000,
,,,1.4480001,-1.0240000,
,,,1.4500000,-1.0240000,
,,,1.4520000,-1.0240000,
,,,1.4540001,-1.0240000,
,,,1.4560001,-1.0240000,
,,,1.4580001,-1.0240000,
,,,1.4600000,-1.0240000,
,,,1.4620000,-1.0240000,
,,,1.4640001,-1.0240000,
,,,1.4660001,-1.0240000,
,,,1.4680001,-1.0240000,
,,,1.4700000,-1.0240000,
,,,1.4720001,-1.0240000,
,,,1.4740001,-1.0240000,
,,,1.4760001,-1.0240000,
,,,1.4780000,-1.0240000,
,,,1.4800000,-1.0240000,
,,,1.4820001,-200.00000298E-3,
,,,1.4840001,-184.00001526E-3,
,,,1.4860001,-80.000005662E-3,
,,,1.4880000,48.00000042E-3,
,,,1.4900001,168.00001264E-3,
,,,1.4920001,192.00000167E-3,
,,,1.4940001,96.000000834E-3,
,,,1.4960001,-32.00000152E-3,
,,,1.4980000,-152.00001001E-3,
,,,1.5000001,-184.00001526E-3,
,,,1.5020001,-136.0000074E-3,
,,,1.5040001,0.0,
,,,1.5060000,128.0000061E-3,
,,,1.5080000,184.00001526E-3,
,,,1.5100001,160.00001132E-3,
,,,1.5120001,0.0,
,,,1.5140001,-112.0000035E-3,
,,,1.5160000,-192.00000167E-3,
,,,1.5180001,-176.00001395E-3,
,,,1.5200001,-32.00000152E-3,
,,,1.5220001,88.000006974E-3,
,,,1.5240000,192.00000167E-3,
,,,1.5260000,160.00001132E-3,
,,,1.5280001,64.000003040E-3,
,,,1.5300001,-80.000005662E-3,
,,,1.5320001,-192.00000167E-3,
,,,1.5340000,-168.00001264E-3,
,,,1.5360000,-80.000005662E-3,
,,,1.5380001,56.000001729E-3,
,,,1.5400001,168.00001264E-3,
,,,1.5420001,168.00001264E-3,
,,,1.5440000,104.0000021E-3,
,,,1.5460001,-40.00000283E-3,
,,,1.5480001,-168.00001264E-3,
,,,1.5500001,-192.00000167E-3,
,,,1.5520000,-152.00001001E-3,
,,,1.5540000,16.0000008E-3,
,,,1.5560001,136.0000074E-3,
,,,1.5580001,184.00001526E-3,
,,,1.5600001,152.00001001E-3,
,,,1.5620000,8.000000380E-3,
,,,1.5640001,-128.0000061E-3,
,,,1.5660001,-192.00000167E-3,
,,,1.5680001,-168.00001264E-3,
,,,1.5700001,-32.00000152E-3,
,,,1.5720000,104.0000021E-3,
,,,1.5740001,200.00000298E-3,
,,,1.5760001,176.00001395E-3,
,,,1.5780001,40.00000283E-3,
,,,1.5800000,-72.000004351E-3,
,,,1.5820000,-192.00000167E-3,
,,,1.5840001,-192.00000167E-3,
,,,1.5860001,-80.000005662E-3,
,,,1.5880001,40.00000283E-3,
,,,1.5900000,168.00001264E-3,
,,,1.5920001,184.00001526E-3,
,,,1.5940001,104.0000021E-3,
,,,1.5960001,-24.00000021E-3,
,,,1.5980000,-160.00001132E-3,
,,,1.6000000,-192.00000167E-3,
,,,1.6020001,-128.0000061E-3,
,,,1.6040001,0.0,
,,,1.6060001,128.0000061E-3,
,,,1.6080000,192.00000167E-3,
,,,1.6100001,144.0000087E-3,
,,,1.6120001,24.00000021E-3,
,,,1.6140001,-120.0000048E-3,
,,,1.6160001,-192.00000167E-3,
,,,1.6180000,-160.00001132E-3,
,,,1.6200001,-24.00000021E-3,
,,,1.6220001,96.000000834E-3,
,,,1.6240001,192.00000167E-3,
,,,1.6260000,160.00001132E-3,
,,,1.6280000,48.00000042E-3,
,,,1.6300001,-80.000005662E-3,
,,,1.6320001,-192.00000167E-3,
,,,1.6340001,-184.00001526E-3,
,,,1.6360000,-64.000003040E-3,
,,,1.6380001,40.00000283E-3,
,,,1.6400001,176.00001395E-3,
,,,1.6420001,184.00001526E-3,
,,,1.6440001,104.0000021E-3,
,,,1.6460000,-24.00000021E-3,
,,,1.6480001,-152.00001001E-3,
,,,1.6500001,-184.00001526E-3,
,,,1.6520001,-128.0000061E-3,
,,,1.6540000,0.0,
,,,1.6560001,136.0000074E-3,
,,,1.6580001,192.00000167E-3,
,,,1.6600001,144.0000087E-3,
,,,1.6620001,16.0000008E-3,
,,,1.6640000,-120.0000048E-3,
,,,1.6660001,-200.00000298E-3,
,,,1.6680001,-168.00001264E-3,
,,,1.6700001,-40.00000283E-3,
,,,1.6720001,104.0000021E-3,
,,,1.6740000,192.00000167E-3,
,,,1.6760001,168.00001264E-3,
,,,1.6780001,56.000001729E-3,
,,,1.6800001,-80.000005662E-3,
,,,1.6820000,-192.00000167E-3,
,,,1.6840001,-168.00001264E-3,
,,,1.6860001,-80.000005662E-3,
,,,1.6880001,56.000001729E-3,
,,,1.6900001,160.00001132E-3,
,,,1.6920000,176.00001395E-3,
,,,1.6940001,104.0000021E-3,
,,,1.6960001,-32.00000152E-3,
,,,1.6980001,-160.00001132E-3,
,,,1.7000000,-192.00000167E-3,
,,,1.7020000,-112.0000035E-3,
,,,1.7040001,16.0000008E-3,
,,,1.7060001,144.0000087E-3,
,,,1.7080001,200.00000298E-3,
,,,1.7100000,136.0000074E-3,
,,,1.7120001,16.0000008E-3,
,,,1.7140001,-120.0000048E-3,
,,,1.7160001,-192.00000167E-3,
,,,1.7180001,-152.00001001E-3,
,,,1.7200000,-8.000000380E-3,
,,,1.7220001,96.000000834E-3,
,,,1.7240001,192.00000167E-3,
,,,1.7260001,168.00001264E-3,
,,,1.7280000,40.00000283E-3,
,,,1.7300001,-80.000005662E-3,
,,,1.7320001,-176.00001395E-3,
,,,1.7340001,-176.00001395E-3,
,,,1.7360001,-64.000003040E-3,
,,,1.7380000,48.00000042E-3,
,,,1.7400001,160.00001132E-3,
,,,1.7420001,176.00001395E-3,
,,,1.7440001,112.0000035E-3,
,,,1.7460001,-40.00000283E-3,
,,,1.7480000,-168.00001264E-3,
,,,1.7500001,-192.00000167E-3,
,,,1.7520001,-128.0000061E-3,
,,,1.7540001,8.000000380E-3,
,,,1.7560000,144.0000087E-3,
,,,1.7580001,192.00000167E-3,
,,,1.7600001,136.0000074E-3,
,,,1.7620001,16.0000008E-3,
,,,1.7640001,-120.0000048E-3,
,,,1.7660000,-200.00000298E-3,
,,,1.7680001,-160.00001132E-3,
,,,1.7700001,-32.00000152E-3,
,,,1.7720001,96.000000834E-3,
,,,1.7740000,192.00000167E-3,
,,,1.7760001,160.00001132E-3,
,,,1.7780001,40.00000283E-3,
,,,1.7800001,-80.000005662E-3,
,,,1.7820001,-192.00000167E-3,
,,,1.7840000,-176.00001395E-3,
,,,1.7860001,-72.000004351E-3,
,,,1.7880001,48.00000042E-3,
,,,1.7900001,184.00001526E-3,
,,,1.7920001,168.00001264E-3,
,,,1.7940000,112.0000035E-3,
,,,1.7960001,-32.00000152E-3,
,,,1.7980001,-152.00001001E-3,
,,,1.8000001,-192.00000167E-3,
,,,1.8020000,-128.0000061E-3,
,,,1.8040001,16.0000008E-3,
,,,1.8060001,136.0000074E-3,
,,,1.8080001,184.00001526E-3,
,,,1.8100001,136.0000074E-3,
,,,1.8120000,8.000000380E-3,
,,,1.8140001,-120.0000048E-3,
,,,1.8160001,-192.00000167E-3,
,,,1.8180001,-168.00001264E-3,
,,,1.8200001,-24.00000021E-3,
,,,1.8220001,96.000000834E-3,
,,,1.8240001,184.00001526E-3,
,,,1.8260001,152.00001001E-3,
,,,1.8280001,48.00000042E-3,
,,,1.8300000,-80.000005662E-3,
,,,1.8320001,-192.00000167E-3,
,,,1.8340001,-160.00001132E-3,
,,,1.8360001,-64.000003040E-3,
,,,1.8380001,72.000004351E-3,
,,,1.8400000,192.00000167E-3,
,,,1.8420001,208.00000429E-3,
,,,1.8440001,136.0000074E-3,
,,,1.8460001,-8.000000380E-3,
,,,1.8480000,-104.0000021E-3,
,,,1.8500001,-96.000000834E-3,
,,,1.8520001,-16.0000008E-3,
,,,1.8540001,112.0000035E-3,
,,,1.8560001,240.00000954E-3,
,,,1.8580000,288.00001740E-3,
,,,1.8600001,248.00001085E-3,
,,,1.8620001,112.0000035E-3,
,,,1.8640001,-16.0000008E-3,
,,,1.8660001,-128.0000061E-3,
,,,1.8680000,-136.0000074E-3,
,,,1.8700001,-72.000004351E-3,
,,,1.8720001,40.00000283E-3,
,,,1.8740001,96.000000834E-3,
,,,1.8760000,64.000003040E-3,
,,,1.8780001,-80.000005662E-3,
,,,1.8800001,-200.00000298E-3,
,,,1.8820001,-296.00000381E-3,
,,,1.8840001,-272.00001478E-3,
,,,1.8860000,-168.00001264E-3,
,,,1.8880001,-56.000001729E-3,
,,,1.8900001,80.000005662E-3,
,,,1.8920001,96.000000834E-3,
,,,1.8940001,32.00000152E-3,
,,,1.8960001,-64.000003040E-3,
,,,1.8980001,-192.00000167E-3,
,,,1.9000001,-192.00000167E-3,
,,,1.9020001,-136.0000074E-3,
,,,1.9040000,16.0000008E-3,
,,,1.9060001,160.00001132E-3,
,,,1.9080001,192.00000167E-3,
,,,1.9100001,144.0000087E-3,
,,,1.9120001,8.000000380E-3,
,,,1.9140000,-120.0000048E-3,
,,,1.9160001,-192.00000167E-3,
,,,1.9180001,-144.0000087E-3,
,,,1.9200001,-8.000000380E-3,
,,,1.9220001,112.0000035E-3,
,,,1.9240001,200.00000298E-3,
,,,1.9260001,176.00001395E-3,
,,,1.9280001,56.000001729E-3,
,,,1.9300001,-64.000003040E-3,
,,,1.9320000,-168.00001264E-3,
,,,1.9340001,-160.00001132E-3,
,,,1.9360001,-56.000001729E-3,
,,,1.9380001,72.000004351E-3,
,,,1.9400001,184.00001526E-3,
,,,1.9420002,192.00000167E-3,
,,,1.9440001,112.0000035E-3,
,,,1.9460001,-40.00000283E-3,
,,,1.9480001,-160.00001132E-3,
,,,1.9500000,-168.00001264E-3,
,,,1.9520001,-112.0000035E-3,
,,,1.9540001,32.00000152E-3,
,,,1.9560001,152.00001001E-3,
,,,1.9580001,192.00000167E-3,
,,,1.9600000,144.0000087E-3,
,,,1.9620001,0.0,
,,,1.9640001,-120.0000048E-3,
,,,1.9660001,-184.00001526E-3,
,,,1.9680001,-144.0000087E-3,
,,,1.9700001,-16.0000008E-3,
,,,1.9720001,112.0000035E-3,
,,,1.9740001,192.00000167E-3,
,,,1.9760001,176.00001395E-3,
,,,1.9780000,40.00000283E-3,
,,,1.9800001,-80.000005662E-3,
,,,1.9820001,-184.00001526E-3,
,,,1.9840001,-176.00001395E-3,
,,,1.9860001,-56.000001729E-3,
,,,1.9880000,80.000005662E-3,
,,,1.9900001,176.00001395E-3,
,,,1.9920001,192.00000167E-3,
,,,1.9940001,88.000006974E-3,
,,,1.9960001,-32.00000152E-3,
,,,1.9980001,-168.00001264E-3,
,,,2.0000000,-176.00001395E-3,
,,,2.0020001,-104.0000021E-3,
,,,2.0040002,32.00000152E-3,
,,,2.0060000,160.00001132E-3,
,,,2.0080001,184.00001526E-3,
,,,2.0100000,152.00001001E-3,
,,,2.0120001,16.0000008E-3,
,,,2.0140002,-120.0000048E-3,
,,,2.0160000,-176.00001395E-3,
,,,2.0180001,-136.0000074E-3,
,,,2.0200000,0.0,
,,,2.0220001,104.0000021E-3,
,,,2.0240002,192.00000167E-3,
,,,2.0260000,184.00001526E-3,
,,,2.0280001,40.00000283E-3,
,,,2.0300002,-80.000005662E-3,
,,,2.0320001,-192.00000167E-3,
,,,2.0340002,-168.00001264E-3,
,,,2.0360000,-48.00000042E-3,
,,,2.0380001,80.000005662E-3,
,,,2.0400002,200.00000298E-3,
,,,2.0420001,192.00000167E-3,
,,,2.0440001,104.0000021E-3,
,,,2.0460000,-40.00000283E-3,
,,,2.0480001,-160.00001132E-3,
,,,2.0500002,-176.00001395E-3,
,,,2.0520000,-96.000000834E-3,
,,,2.0540001,32.00000152E-3,
,,,2.0560000,160.00001132E-3,
,,,2.0580001,192.00000167E-3,
,,,2.0600002,152.00001001E-3,
,,,2.0620000,16.0000008E-3,
,,,2.0640001,-112.0000035E-3,
,,,2.0660000,-160.00001132E-3,
,,,2.0680001,-144.0000087E-3,
,,,2.0700002,0.0,
,,,2.0720000,128.0000061E-3,
,,,2.0740001,208.00000429E-3,
,,,2.0760002,176.00001395E-3,
,,,2.0780001,40.00000283E-3,
,,,2.0800002,-80.000005662E-3,
,,,2.0820000,-184.00001526E-3,
,,,2.0840001,-160.00001132E-3,
,,,2.0860002,-40.00000283E-3,
,,,2.0880001,104.0000021E-3,
,,,2.0900002,184.00001526E-3,
,,,2.0920000,176.00001395E-3,
,,,2.0940001,88.000006974E-3,
,,,2.0960002,-40.00000283E-3,
,,,2.0980000,-160.00001132E-3,
,,,2.1000001,-176.00001395E-3,
,,,2.1020000,-104.0000021E-3,
,,,2.1040001,32.00000152E-3,
,,,2.1060002,160.00001132E-3,
,,,2.1080000,192.00000167E-3,
,,,2.1100001,144.0000087E-3,
,,,2.1120000,-8.000000380E-3,
,,,2.1140001,-128.0000061E-3,
,,,2.1160002,-192.00000167E-3,
,,,2.1180000,-136.0000074E-3,
,,,2.1200001,-16.0000008E-3,
,,,2.1220002,112.0000035E-3,
,,,2.1240001,192.00000167E-3,
,,,2.1260002,152.00001001E-3,
,,,2.1280000,16.0000008E-3,
,,,2.1300001,-104.0000021E-3,
,,,2.1320002,-208.00000429E-3,
,,,2.1340001,-192.00000167E-3,
,,,2.1360002,-64.000003040E-3,
,,,2.1380000,56.000001729E-3,
,,,2.1400001,168.00001264E-3,
,,,2.1420002,152.00001001E-3,
,,,2.1440001,56.000001729E-3,
,,,2.1460001,-72.000004351E-3,
,,,2.1480000,-192.00000167E-3,
,,,2.1500001,-200.00000298E-3,
,,,2.1520002,-112.0000035E-3,
,,,2.1540000,16.0000008E-3,
,,,2.1560001,128.0000061E-3,
,,,2.1580000,176.00001395E-3,
,,,2.1600001,112.0000035E-3,
,,,2.1620002,-24.00000021E-3,
,,,2.1640000,-152.00001001E-3,
,,,2.1660001,-208.00000429E-3,
,,,2.1680002,-160.00001132E-3,
,,,2.1700001,-16.0000008E-3,
,,,2.1720002,104.0000021E-3,
,,,2.1740000,176.00001395E-3,
,,,2.1760001,136.0000074E-3,
,,,2.1780002,24.00000021E-3,
,,,2.1800001,-120.0000048E-3,
,,,2.1820002,-216.00000560E-3,
,,,2.1840000,-176.00001395E-3,
,,,2.1860001,-64.000003040E-3,
,,,2.1880002,64.000003040E-3,
,,,2.1900001,200.00000298E-3,
,,,2.1920002,176.00001395E-3,
,,,2.1940000,80.000005662E-3,
,,,2.1960001,-72.000004351E-3,
,,,2.1980002,-192.00000167E-3,
,,,2.2000000,-192.00000167E-3,
,,,2.2020001,-96.000000834E-3,
,,,2.2040000,40.00000283E-3,
,,,2.2060001,152.00001001E-3,
,,,2.2080002,176.00001395E-3,
,,,2.2100000,120.0000048E-3,
,,,2.2120001,-16.0000008E-3,
,,,2.2140000,-144.0000087E-3,
,,,2.2160001,-192.00000167E-3,
,,,2.2180002,-144.0000087E-3,
,,,2.2200000,-8.000000380E-3,
,,,2.2220001,112.0000035E-3,
,,,2.2240002,208.00000429E-3,
,,,2.2260001,168.00001264E-3,
,,,2.2280002,32.00000152E-3,
,,,2.2300000,-104.0000021E-3,
,,,2.2320001,-192.00000167E-3,
,,,2.2340002,-176.00001395E-3,
,,,2.2360001,-40.00000283E-3,
,,,2.2380002,80.000005662E-3,
,,,2.2400000,200.00000298E-3,
,,,2.2420001,176.00001395E-3,
,,,2.2440002,64.000003040E-3,
,,,2.2460001,-56.000001729E-3,
,,,2.2480001,-184.00001526E-3,
,,,2.2500000,-184.00001526E-3,
,,,2.2520001,-96.000000834E-3,
,,,2.2540002,32.00000152E-3,
,,,2.2560000,152.00001001E-3,
,,,2.2580001,176.00001395E-3,
,,,2.2600000,120.0000048E-3,
,,,2.2620001,-8.000000380E-3,
,,,2.2640002,-144.0000087E-3,
,,,2.2660000,-192.00000167E-3,
,,,2.2680001,-144.0000087E-3,
,,,2.2700002,-8.000000380E-3,
,,,2.2720001,112.0000035E-3,
,,,2.2740002,200.00000298E-3,
,,,2.2760000,168.00001264E-3,
,,,2.2780001,40.00000283E-3,
,,,2.2800002,-104.0000021E-3,
,,,2.2820001,-192.00000167E-3,
,,,2.2840002,-168.00001264E-3,
,,,2.2860000,-48.00000042E-3,
,,,2.2880001,80.000005662E-3,
,,,2.2900002,192.00000167E-3,
,,,2.2920001,184.00001526E-3,
,,,2.2940001,72.000004351E-3,
,,,2.2960000,-56.000001729E-3,
,,,2.2980001,-192.00000167E-3,
,,,2.3000002,-184.00001526E-3,
,,,2.3020000,-88.000006974E-3,
,,,2.3040001,48.00000042E-3,
,,,2.3060000,160.00001132E-3,
,,,2.3080001,184.00001526E-3,
,,,2.3100002,128.0000061E-3,
,,,2.3120000,-16.0000008E-3,
,,,2.3140001,-144.0000087E-3,
,,,2.3160002,-184.00001526E-3,
,,,2.3180001,-152.00001001E-3,
,,,2.3200002,-8.000000380E-3,
,,,2.3220000,136.0000074E-3,
,,,2.3240001,192.00000167E-3,
,,,2.3260002,160.00001132E-3,
,,,2.3280001,32.00000152E-3,
,,,2.3300002,-112.0000035E-3,
,,,2.3320000,-208.00000429E-3,
,,,2.3340001,-176.00001395E-3,
,,,2.3360002,-40.00000283E-3,
,,,2.3380001,72.000004351E-3,
,,,2.3400002,192.00000167E-3,
,,,2.3420000,184.00001526E-3,
,,,2.3440001,80.000005662E-3,
,,,2.3460002,-72.000004351E-3,
,,,2.3480000,-184.00001526E-3,
,,,2.3500001,-192.00000167E-3,
,,,2.3520000,-104.0000021E-3,
,,,2.3540001,32.00000152E-3,
,,,2.3560002,160.00001132E-3,
,,,2.3580000,200.00000298E-3,
,,,2.3600001,128.0000061E-3,
,,,2.3620002,-16.0000008E-3,
,,,2.3640001,-160.00001132E-3,
,,,2.3660002,-192.00000167E-3,
,,,2.3680000,-144.0000087E-3,
,,,2.3700001,8.000000380E-3,
,,,2.3720002,120.0000048E-3,
,,,2.3740001,200.00000298E-3,
,,,2.3760002,168.00001264E-3,
,,,2.3780000,24.00000021E-3,
,,,2.3800001,-104.0000021E-3,
,,,2.3820002,-200.00000298E-3,
,,,2.3840001,-176.00001395E-3,
,,,2.3860002,-40.00000283E-3,
,,,2.3880000,88.000006974E-3,
,,,2.3900001,184.00001526E-3,
,,,2.3920002,168.00001264E-3,
,,,2.3940001,80.000005662E-3,
,,,2.3960001,-64.000003040E-3,
,,,2.3980000,-192.00000167E-3,
,,,2.4000001,-192.00000167E-3,
,,,2.4020002,-104.0000021E-3,
,,,2.4040000,40.00000283E-3,
,,,2.4060001,160.00001132E-3,
,,,2.4080002,184.00001526E-3,
,,,2.4100001,120.0000048E-3,
,,,2.4120002,-16.0000008E-3,
,,,2.4140000,-160.00001132E-3,
,,,2.4160001,-192.00000167E-3,
,,,2.4180002,-144.0000087E-3,
,,,2.4200001,8.000000380E-3,
,,,2.4220002,120.0000048E-3,
,,,2.4240000,200.00000298E-3,
,,,2.4260001,152.00001001E-3,
,,,2.4280002,24.00000021E-3,
,,,2.4300001,-96.000000834E-3,
,,,2.4320002,-200.00000298E-3,
,,,2.4340000,-160.00001132E-3,
,,,2.4360001,-48.00000042E-3,
,,,2.4380002,88.000006974E-3,
,,,2.4400001,192.00000167E-3,
,,,2.4420002,168.00001264E-3,
,,,2.4440000,64.000003040E-3,
,,,2.4460001,-72.000004351E-3,
,,,2.4480002,-176.00001395E-3,
,,,2.4500000,-184.00001526E-3,
,,,2.4520001,-96.000000834E-3,
,,,2.4540002,56.000001729E-3,
,,,2.4560001,168.00001264E-3,
,,,2.4580002,176.00001395E-3,
,,,2.4600000,128.0000061E-3,
,,,2.4620001,-24.00000021E-3,
,,,2.4640002,-160.00001132E-3,
,,,2.4660001,-192.00000167E-3,
,,,2.4680002,-144.0000087E-3,
,,,2.4700000,0.0,
,,,2.4720001,136.0000074E-3,
,,,2.4740002,200.00000298E-3,
,,,2.4760001,152.00001001E-3,
,,,2.4780002,24.00000021E-3,
,,,2.4800000,-112.0000035E-3,
,,,2.4820001,-200.00000298E-3,
,,,2.4840002,-176.00001395E-3,
,,,2.4860001,-40.00000283E-3,
,,,2.4880002,96.000000834E-3,
,,,2.4900000,184.00001526E-3,
,,,2.4920001,184.00001526E-3,
,,,2.4940002,72.000004351E-3,
,,,2.4960001,-72.000004351E-3,
,,,2.4980001,-184.00001526E-3,
,,,2.5000000,-168.00001264E-3,
,,,2.5020001,-88.000006974E-3,
,,,2.5040002,64.000003040E-3,
,,,2.5060000,184.00001526E-3,
,,,2.5080001,192.00000167E-3,
,,,2.5100002,136.0000074E-3,
,,,2.5120001,-24.00000021E-3,
,,,2.5140002,-160.00001132E-3,
,,,2.5160000,-200.00000298E-3,
,,,2.5180001,-144.0000087E-3,
,,,2.5200002,32.00000152E-3,
,,,2.5220001,136.0000074E-3,
,,,2.5240002,200.00000298E-3,
,,,2.5260000,152.00001001E-3,
,,,2.5280001,24.00000021E-3,
,,,2.5300002,-104.0000021E-3,
,,,2.5320001,-200.00000298E-3,
,,,2.5340002,-160.00001132E-3,
,,,2.5360000,-40.00000283E-3,
,,,2.5380001,112.0000035E-3,
,,,2.5400002,208.00000429E-3,
,,,2.5420001,176.00001395E-3,
,,,2.5440001,72.000004351E-3,
,,,2.5460000,-80.000005662E-3,
,,,2.5480001,-192.00000167E-3,
,,,2.5500002,-176.00001395E-3,
,,,2.5520000,-88.000006974E-3,
,,,2.5540001,56.000001729E-3,
,,,2.5560002,176.00001395E-3,
,,,2.5580001,192.00000167E-3,
,,,2.5600002,104.0000021E-3,
,,,2.5620000,-32.00000152E-3,
,,,2.5640001,-168.00001264E-3,
,,,2.5660002,-200.00000298E-3,
,,,2.5680001,-144.0000087E-3,
,,,2.5700002,8.000000380E-3,
,,,2.5720000,136.0000074E-3,
,,,2.5740001,200.00000298E-3,
,,,2.5760002,168.00001264E-3,
,,,2.5780001,16.0000008E-3,
,,,2.5800002,-112.0000035E-3,
,,,2.5820000,-216.00000560E-3,
,,,2.5840001,-176.00001395E-3,
,,,2.5860002,-40.00000283E-3,
,,,2.5880001,104.0000021E-3,
,,,2.5900002,208.00000429E-3,
,,,2.5920000,192.00000167E-3,
,,,2.5940001,56.000001729E-3,
,,,2.5960002,-80.000005662E-3,
,,,2.5980000,-192.00000167E-3,
,,,2.6000001,-176.00001395E-3,
,,,2.6020002,-72.000004351E-3,
,,,2.6040001,56.000001729E-3,
,,,2.6060002,184.00001526E-3,
,,,2.6080000,192.00000167E-3,
,,,2.6100001,120.0000048E-3,
,,,2.6120002,-32.00000152E-3,
,,,2.6140001,-160.00001132E-3,
,,,2.6160002,-192.00000167E-3,
,,,2.6180000,-128.0000061E-3,
,,,2.6200001,32.00000152E-3,
,,,2.6220002,160.00001132E-3,
,,,2.6240001,208.00000429E-3,
,,,2.6260002,160.00001132E-3,
,,,2.6280000,8.000000380E-3,
,,,2.6300001,-120.0000048E-3,
,,,2.6320002,-200.00000298E-3,
,,,2.6340001,-152.00001001E-3,
,,,2.6360002,-8.000000380E-3,
,,,2.6380000,112.0000035E-3,
,,,2.6400001,216.00000560E-3,
,,,2.6420002,176.00001395E-3,
,,,2.6440001,64.000003040E-3,
,,,2.6460001,-88.000006974E-3,
,,,2.6480002,-192.00000167E-3,
,,,2.6500001,-184.00001526E-3,
,,,2.6520002,-88.000006974E-3,
,,,2.6540000,56.000001729E-3,
,,,2.6560001,184.00001526E-3,
,,,2.6580002,184.00001526E-3,
,,,2.6600001,112.0000035E-3,
,,,2.6620002,-32.00000152E-3,
,,,2.6640000,-184.00001526E-3,
,,,2.6660001,-200.00000298E-3,
,,,2.6680002,-136.0000074E-3,
,,,2.6700001,24.00000021E-3,
,,,2.6720002,152.00001001E-3,
,,,2.6740000,200.00000298E-3,
,,,2.6760001,144.0000087E-3,
,,,2.6780002,-8.000000380E-3,
,,,2.6800001,-136.0000074E-3,
,,,2.6820002,-216.00000560E-3,
,,,2.6840000,-168.00001264E-3,
,,,2.6860001,-32.00000152E-3,
,,,2.6880002,112.0000035E-3,
,,,2.6900001,200.00000298E-3,
,,,2.6920002,160.00001132E-3,
,,,2.6940002,40.00000283E-3,
,,,2.6960001,-96.000000834E-3,
,,,2.6980002,-208.00000429E-3,
,,,2.7000000,-192.00000167E-3,
,,,2.7020001,-88.000006974E-3,
,,,2.7040002,64.000003040E-3,
,,,2.7060001,184.00001526E-3,
,,,2.7080002,184.00001526E-3,
,,,2.7100000,112.0000035E-3,
,,,2.7120001,-48.00000042E-3,
,,,2.7140002,-176.00001395E-3,
,,,2.7160001,-192.00000167E-3,
,,,2.7180002,-136.0000074E-3,
,,,2.72000003,24.00000021E-3,
,,,2.72200012,144.0000087E-3,
,,,2.72400022,208.00000429E-3,
,,,2.72600007,160.00001132E-3,
,,,2.72800016,0.0,
,,,2.73000002,-152.00001001E-3,
,,,2.73200011,-200.00000298E-3,
,,,2.73400021,-176.00001395E-3,
,,,2.73600006,-24.00000021E-3,
,,,2.73800015,112.0000035E-3,
,,,2.74000025,208.00000429E-3,
,,,2.74200010,192.00000167E-3,
,,,2.74400020,72.000004351E-3,
,,,2.74600005,-72.000004351E-3,
,,,2.74800014,-176.00001395E-3,
,,,2.75000024,-168.00001264E-3,
,,,2.75200009,-56.000001729E-3,
,,,2.75400019,104.0000021E-3,
,,,2.75600004,232.00000823E-3,
,,,2.75800014,240.00000954E-3,
,,,2.76000023,168.00001264E-3,
,,,2.76200008,40.00000283E-3,
,,,2.76400018,-80.000005662E-3,
,,,2.76600003,-88.000006974E-3,
,,,2.76800013,-24.00000021E-3,
,,,2.77000022,128.0000061E-3,
,,,2.77200007,256.00001216E-3,
,,,2.77400017,280.00000119E-3,
,,,2.77600002,184.00001526E-3,
,,,2.77800012,8.000000380E-3,
,,,2.78000021,-184.00001526E-3,
,,,2.78200006,-296.00000381E-3,
,,,2.78400016,-272.00001478E-3,
,,,2.78600001,-136.0000074E-3,
,,,2.78800011,-8.000000380E-3,
,,,2.79000020,112.0000035E-3,
,,,2.79200006,88.000006974E-3,
,,,2.79400015,-40.00000283E-3,
,,,2.79600024,-176.00001395E-3,
,,,2.79800010,-280.00000119E-3,
,,,2.80000019,-256.00001216E-3,
,,,2.80200005,-144.0000087E-3,
,,,2.80400014,8.000000380E-3,
,,,2.80600023,136.0000074E-3,
,,,2.80800009,144.0000087E-3,
,,,2.81000018,64.000003040E-3,
,,,2.81200004,-72.000004351E-3,
,,,2.81400013,-176.00001395E-3,
,,,2.81600022,-208.00000429E-3,
,,,2.81800008,-128.0000061E-3,
,,,2.82000017,32.00000152E-3,
,,,2.82200003,152.00001001E-3,
,,,2.82400012,216.00000560E-3,
,,,2.82600021,184.00001526E-3,
,,,2.82800007,24.00000021E-3,
,,,2.83000016,-120.0000048E-3,
,,,2.83200002,-184.00001526E-3,
,,,2.83400011,-152.00001001E-3,
,,,2.83600020,0.0,
,,,2.83800006,136.0000074E-3,
,,,2.84000015,232.00000823E-3,
,,,2.84200025,192.00000167E-3,
,,,2.84400010,64.000003040E-3,
,,,2.84600019,-80.000005662E-3,
,,,2.84800005,-192.00000167E-3,
,,,2.85000014,-176.00001395E-3,
,,,2.85200024,-56.000001729E-3,
,,,2.85400009,88.000006974E-3,
,,,2.85600019,192.00000167E-3,
,,,2.85800004,192.00000167E-3,
,,,2.86000013,112.0000035E-3,
,,,2.86200023,-24.00000021E-3,
,,,2.86400008,-168.00001264E-3,
,,,2.86600018,-192.00000167E-3,
,,,2.86800003,-96.000000834E-3,
,,,2.87000012,32.00000152E-3,
,,,2.87200022,160.00001132E-3,
,,,2.87400007,216.00000560E-3,
,,,2.87600017,160.00001132E-3,
,,,2.87800002,0.0,
,,,2.88000011,-136.0000074E-3,
,,,2.88200021,-192.00000167E-3,
,,,2.88400006,-144.0000087E-3,
,,,2.88600016,0.0,
,,,2.88800025,120.0000048E-3,
,,,2.89000010,216.00000560E-3,
,,,2.89200020,176.00001395E-3,
,,,2.89400005,40.00000283E-3,
,,,2.89600015,-104.0000021E-3,
,,,2.89800024,-208.00000429E-3,
,,,2.90000010,-184.00001526E-3,
,,,2.90200019,-56.000001729E-3,
,,,2.90400004,72.000004351E-3,
,,,2.90600014,200.00000298E-3,
,,,2.90800023,192.00000167E-3,
,,,2.91000009,112.0000035E-3,
,,,2.91200018,-40.00000283E-3,
,,,2.91400003,-168.00001264E-3,
,,,2.91600013,-192.00000167E-3,
,,,2.91800022,-120.0000048E-3,
,,,2.92000008,40.00000283E-3,
,,,2.92200017,168.00001264E-3,
,,,2.92400002,216.00000560E-3,
,,,2.92600012,160.00001132E-3,
,,,2.92800021,-8.000000380E-3,
,,,2.93000007,-144.0000087E-3,
,,,2.93200016,-208.00000429E-3,
,,,2.93400025,-160.00001132E-3,
,,,2.93600011,-16.0000008E-3,
,,,2.93800020,128.0000061E-3,
,,,2.94000006,216.00000560E-3,
,,,2.94200015,184.00001526E-3,
,,,2.94400024,48.00000042E-3,
,,,2.94600010,-88.000006974E-3,
,,,2.94800019,-200.00000298E-3,
,,,2.95000005,-168.00001264E-3,
,,,2.95200014,-56.000001729E-3,
,,,2.95400023,96.000000834E-3,
,,,2.95600009,200.00000298E-3,
,,,2.95800018,192.00000167E-3,
,,,2.96000004,120.0000048E-3,
,,,2.96200013,-16.0000008E-3,
,,,2.96400023,-168.00001264E-3,
,,,2.96600008,-192.00000167E-3,
,,,2.96800017,-112.0000035E-3,
,,,2.97000003,48.00000042E-3,
,,,2.97200012,184.00001526E-3,
,,,2.97400022,216.00000560E-3,
,,,2.97600007,144.0000087E-3,
,,,2.97800016,0.0,
,,,2.98000026,-144.0000087E-3,
,,,2.98200011,-192.00000167E-3,
,,,2.98400021,-144.0000087E-3,
,,,2.98600006,0.0,
,,,2.98800015,120.0000048E-3,
,,,2.99000025,216.00000560E-3,
,,,2.99200010,184.00001526E-3,
,,,2.99400020,64.000003040E-3,
,,,2.99600005,-80.000005662E-3,
,,,2.99800014,-192.00000167E-3,
,,,3.00000024,-176.00001395E-3,
,,,3.00200009,-56.000001729E-3,
,,,3.00400019,80.000005662E-3,
,,,3.00600004,208.00000429E-3,
,,,3.00800014,192.00000167E-3,
,,,3.01000023,104.0000021E-3,
,,,3.01200008,-48.00000042E-3,
,,,3.01400018,-176.00001395E-3,
,,,3.01600003,-192.00000167E-3,
,,,3.01800013,-104.0000021E-3,
,,,3.02000022,32.00000152E-3,
,,,3.02200007,144.0000087E-3,
,,,3.02400017,200.00000298E-3,
,,,3.02600026,144.0000087E-3,
,,,3.02800012,-8.000000380E-3,
,,,3.03000021,-144.0000087E-3,
,,,3.03200006,-216.00000560E-3,
,,,3.03400016,-176.00001395E-3,
,,,3.03600025,-24.00000021E-3,
,,,3.03800011,96.000000834E-3,
,,,3.04000020,192.00000167E-3,
,,,3.04200006,160.00001132E-3,
,,,3.04400015,32.00000152E-3,
,,,3.04600024,-112.0000035E-3,
,,,3.04800010,-232.00000823E-3,
,,,3.05000019,-192.00000167E-3,
,,,3.05200005,-80.000005662E-3,
,,,3.05400014,56.000001729E-3,
,,,3.05600023,176.00001395E-3,
,,,3.05800009,168.00001264E-3,
,,,3.06000018,80.000005662E-3,
,,,3.06200004,-72.000004351E-3,
,,,3.06400013,-192.00000167E-3,
,,,3.06600022,-192.00000167E-3,
,,,3.06800008,-144.0000087E-3,
,,,3.07000017,16.0000008E-3,
,,,3.07200003,136.0000074E-3,
,,,3.07400012,168.00001264E-3,
,,,3.07600021,120.0000048E-3,
,,,3.07800007,-24.00000021E-3,
,,,3.08000016,-152.00001001E-3,
,,,3.08200026,-216.00000560E-3,
,,,3.08400011,-184.00001526E-3,
,,,3.08600020,-24.00000021E-3,
,,,3.08800006,96.000000834E-3,
,,,3.09000015,192.00000167E-3,
,,,3.09200025,152.00001001E-3,
,,,3.09400010,16.0000008E-3,
,,,3.09600019,-104.0000021E-3,
,,,3.09800005,-216.00000560E-3,
,,,3.10000014,-192.00000167E-3,
,,,3.10200024,-64.000003040E-3,
,,,3.10400009,72.000004351E-3,
,,,3.10600019,176.00001395E-3,
,,,3.10800004,176.00001395E-3,
,,,3.11000013,80.000005662E-3,
,,,3.11200023,-64.000003040E-3,
,,,3.11400008,-176.00001395E-3,
,,,3.11600018,-192.00000167E-3,
,,,3.11800003,-120.0000048E-3,
,,,3.12000012,24.00000021E-3,
,,,3.12200022,152.00001001E-3,
,,,3.12400007,184.00001526E-3,
,,,3.12600017,136.0000074E-3,
,,,3.12800026,-16.0000008E-3,
,,,3.13000011,-136.0000074E-3,
,,,3.13200021,-200.00000298E-3,
,,,3.13400006,-160.00001132E-3,
,,,3.13600016,-16.0000008E-3,
,,,3.13800025,112.0000035E-3,
,,,3.14000010,192.00000167E-3,
,,,3.14200020,160.00001132E-3,
,,,3.14400005,32.00000152E-3,
,,,3.14600015,-104.0000021E-3,
,,,3.14800024,-208.00000429E-3,
,,,3.15000010,-168.00001264E-3,
,,,3.15200019,-64.000003040E-3,
,,,3.15400004,80.000005662E-3,
,,,3.15600014,184.00001526E-3,
,,,3.15800023,184.00001526E-3,
,,,3.16000009,88.000006974E-3,
,,,3.16200018,-48.00000042E-3,
,,,3.16400003,-184.00001526E-3,
,,,3.16600013,-192.00000167E-3,
,,,3.16800022,-120.0000048E-3,
,,,3.17000008,16.0000008E-3,
,,,3.17200017,152.00001001E-3,
,,,3.17400026,192.00000167E-3,
,,,3.17600012,128.0000061E-3,
,,,3.17800021,-8.000000380E-3,
,,,3.18000007,-152.00001001E-3,
,,,3.18200016,-192.00000167E-3,
,,,3.18400025,-152.00001001E-3,
,,,3.18600011,-8.000000380E-3,
,,,3.18800020,112.0000035E-3,
,,,3.19000006,192.00000167E-3,
,,,3.19200015,160.00001132E-3,
,,,3.19400024,32.00000152E-3,
,,,3.19600010,-104.0000021E-3,
,,,3.19800019,-192.00000167E-3,
,,,3.20000005,-176.00001395E-3,
,,,3.20200014,-48.00000042E-3,
,,,3.20400023,72.000004351E-3,
,,,3.20600009,192.00000167E-3,
,,,3.20800018,192.00000167E-3,
,,,3.21000004,80.000005662E-3,
,,,3.21200013,-40.00000283E-3,
,,,3.21400023,-184.00001526E-3,
,,,3.21600008,-208.00000429E-3,
,,,3.21800017,-112.0000035E-3,
,,,3.22000027,32.00000152E-3,
,,,3.22200012,168.00001264E-3,
,,,3.22400022,192.00000167E-3,
,,,3.22600007,144.0000087E-3,
,,,3.22800016,0.0,
,,,3.23000026,-136.0000074E-3,
,,,3.23200011,-192.00000167E-3,
,,,3.23400021,-152.00001001E-3,
,,,3.23600006,0.0,
,,,3.23800015,120.0000048E-3,
,,,3.24000025,216.00000560E-3,
,,,3.24200010,160.00001132E-3,
,,,3.24400020,32.00000152E-3,
,,,3.24600005,-72.000004351E-3,
,,,3.24800014,-200.00000298E-3,
,,,3.25000024,-184.00001526E-3,
,,,3.25200009,-64.000003040E-3,
,,,3.25400019,72.000004351E-3,
,,,3.25600004,176.00001395E-3,
,,,3.25800014,184.00001526E-3,
,,,3.26000023,96.000000834E-3,
,,,3.26200008,-56.000001729E-3,
,,,3.26400018,-184.00001526E-3,
,,,3.26600027,-184.00001526E-3,
,,,3.26800013,-112.0000035E-3,
,,,3.27000022,32.00000152E-3,
,,,3.27200007,144.0000087E-3,
,,,3.27400017,184.00001526E-3,
,,,3.27600026,144.0000087E-3,
,,,3.27800012,-16.0000008E-3,
,,,3.28000021,-144.0000087E-3,
,,,3.28200006,-192.00000167E-3,
,,,3.28400016,-160.00001132E-3,
,,,3.28600025,-8.000000380E-3,
,,,3.28800011,112.0000035E-3,
,,,3.29000020,200.00000298E-3,
,,,3.29200006,160.00001132E-3,
,,,3.29400015,24.00000021E-3,
,,,3.29600024,-104.0000021E-3,
,,,3.29800010,-208.00000429E-3,
,,,3.30000019,-184.00001526E-3,
,,,3.30200005,-64.000003040E-3,
,,,3.30400014,72.000004351E-3,
,,,3.30600023,184.00001526E-3,
,,,3.30800009,176.00001395E-3,
,,,3.31000018,72.000004351E-3,
,,,3.31200027,-64.000003040E-3,
,,,3.31400013,-184.00001526E-3,
,,,3.31600022,-192.00000167E-3,
,,,3.31800008,-104.0000021E-3,
,,,3.32000017,48.00000042E-3,
,,,3.32200027,152.00001001E-3,
,,,3.32400012,184.00001526E-3,
,,,3.32600021,136.0000074E-3,
,,,3.32800007,-16.0000008E-3,
,,,3.33000016,-144.0000087E-3,
,,,3.33200026,-200.00000298E-3,
,,,3.33400011,-160.00001132E-3,
,,,3.33600020,-8.000000380E-3,
,,,3.33800006,120.0000048E-3,
,,,3.34000015,192.00000167E-3,
,,,3.34200025,168.00001264E-3,
,,,3.34400010,24.00000021E-3,
,,,3.34600019,-112.0000035E-3,
,,,3.34800005,-208.00000429E-3,
,,,3.35000014,-168.00001264E-3,
,,,3.35200024,-48.00000042E-3,
,,,3.35400009,72.000004351E-3,
,,,3.35600019,184.00001526E-3,
,,,3.35800028,184.00001526E-3,
,,,3.36000013,72.000004351E-3,
,,,3.36200023,-64.000003040E-3,
,,,3.36400008,-184.00001526E-3,
,,,3.36600018,-192.00000167E-3,
,,,3.36800027,-104.0000021E-3,
,,,3.37000012,32.00000152E-3,
,,,3.37200022,152.00001001E-3,
,,,3.37400007,192.00000167E-3,
,,,3.37600017,128.0000061E-3,
,,,3.37800026,0.0,
,,,3.38000011,-144.0000087E-3,
,,,3.38200021,-208.00000429E-3,
,,,3.38400006,-144.0000087E-3,
,,,3.38600016,-8.000000380E-3,
,,,3.38800025,136.0000074E-3,
,,,3.39000010,216.00000560E-3,
,,,3.39200020,160.00001132E-3,
,,,3.39400005,32.00000152E-3,
,,,3.39600015,-112.0000035E-3,
,,,3.39800024,-208.00000429E-3,
,,,3.40000010,-184.00001526E-3,
,,,3.40200019,-40.00000283E-3,
,,,3.40400004,80.000005662E-3,
,,,3.40600014,192.00000167E-3,
,,,3.40800023,176.00001395E-3,
,,,3.41000009,64.000003040E-3,
,,,3.41200018,-56.000001729E-3,
,,,3.41400027,-200.00000298E-3,
,,,3.41600013,-176.00001395E-3,
,,,3.41800022,-104.0000021E-3,
,,,3.42000008,40.00000283E-3,
,,,3.42200017,160.00001132E-3,
,,,3.42400026,184.00001526E-3,
,,,3.42600012,144.0000087E-3,
,,,3.42800021,-16.0000008E-3,
,,,3.43000007,-160.00001132E-3,
,,,3.43200016,-192.00000167E-3,
,,,3.43400025,-128.0000061E-3,
,,,3.43600011,-16.0000008E-3,
,,,3.43800020,128.0000061E-3,
,,,3.44000006,192.00000167E-3,
,,,3.44200015,160.00001132E-3,
,,,3.44400024,16.0000008E-3,
,,,3.44600010,-96.000000834E-3,
,,,3.44800019,-200.00000298E-3,
,,,3.45000005,-176.00001395E-3,
,,,3.45200014,-48.00000042E-3,
,,,3.45400023,80.000005662E-3,
,,,3.45600009,176.00001395E-3,
,,,3.45800018,176.00001395E-3,
,,,3.46000028,80.000005662E-3,
,,,3.46200013,-56.000001729E-3,
,,,3.46400023,-176.00001395E-3,
,,,3.46600008,-176.00001395E-3,
,,,3.46800017,-96.000000834E-3,
,,,3.47000027,48.00000042E-3,
,,,3.47200012,176.00001395E-3,
,,,3.47400022,200.00000298E-3,
,,,3.47600007,136.0000074E-3,
,,,3.47800016,-16.0000008E-3,
,,,3.48000026,-144.0000087E-3,
,,,3.48200011,-192.00000167E-3,
,,,3.48400021,-136.0000074E-3,
,,,3.48600006,8.000000380E-3,
,,,3.48800015,128.0000061E-3,
,,,3.49000025,208.00000429E-3,
,,,3.49200010,160.00001132E-3,
,,,3.49400020,24.00000021E-3,
,,,3.49600005,-120.0000048E-3,
,,,3.49800014,-200.00000298E-3,
,,,3.50000024,-184.00001526E-3,
,,,3.50200009,-48.00000042E-3,
,,,3.50400019,72.000004351E-3,
,,,3.50600028,192.00000167E-3,
,,,3.50800014,176.00001395E-3,
,,,3.51000023,72.000004351E-3,
,,,3.51200008,-64.000003040E-3,
,,,3.51400018,-184.00001526E-3,
,,,3.51600027,-176.00001395E-3,
,,,3.51800013,-104.0000021E-3,
,,,3.52000022,32.00000152E-3,
,,,3.52200007,168.00001264E-3,
,,,3.52400017,192.00000167E-3,
,,,3.52600026,120.0000048E-3,
,,,3.52800012,-32.00000152E-3,
,,,3.53000021,-160.00001132E-3,
,,,3.53200006,-208.00000429E-3,
,,,3.53400016,-152.00001001E-3,
,,,3.53600025,0.0,
,,,3.53800011,120.0000048E-3,
,,,3.54000020,192.00000167E-3,
,,,3.54200006,152.00001001E-3,
,,,3.54400015,16.0000008E-3,
,,,3.54600024,-104.0000021E-3,
,,,3.54800010,-200.00000298E-3,
,,,3.55000019,-184.00001526E-3,
,,,3.55200028,-40.00000283E-3,
,,,3.55400014,88.000006974E-3,
,,,3.55600023,192.00000167E-3,
,,,3.55800009,176.00001395E-3,
,,,3.56000018,72.000004351E-3,
,,,3.56200027,-64.000003040E-3,
,,,3.56400013,-200.00000298E-3,
,,,3.56600022,-176.00001395E-3,
,,,3.56800008,-96.000000834E-3,
,,,3.57000017,48.00000042E-3,
,,,3.57200027,176.00001395E-3,
,,,3.57400012,184.00001526E-3,
,,,3.57600021,120.0000048E-3,
,,,3.57800007,-24.00000021E-3,
,,,3.58000016,-144.0000087E-3,
,,,3.58200026,-184.00001526E-3,
,,,3.58400011,-144.0000087E-3,
,,,3.58600020,0.0,
,,,3.58800006,120.0000048E-3,
,,,3.59000015,184.00001526E-3,
,,,3.59200025,160.00001132E-3,
,,,3.59400010,32.00000152E-3,
,,,3.59600019,-96.000000834E-3,
,,,3.59800029,-192.00000167E-3,
,,,3.60000014,-144.0000087E-3,
,,,3.60200024,0.0,
,,,3.60400009,136.0000074E-3,
,,,3.60600019,240.00000954E-3,
,,,3.60800028,240.00000954E-3,
,,,3.61000013,144.0000087E-3,
,,,3.61200023,16.0000008E-3,
,,,3.61400008,-72.000004351E-3,
,,,3.61600018,-64.000003040E-3,
,,,3.61800027,48.00000042E-3,
,,,3.62000012,176.00001395E-3,
,,,3.62200022,263.99999857E-3,
,,,3.62400007,232.00000823E-3,
,,,3.62600017,128.0000061E-3,
,,,3.62800026,-72.000004351E-3,
,,,3.63000011,-224.00000691E-3,
,,,3.63200021,-280.00000119E-3,
,,,3.63400006,-256.00001216E-3,
,,,3.63600016,-112.0000035E-3,
,,,3.63800025,16.0000008E-3,
,,,3.64000010,88.000006974E-3,
,,,3.64200020,72.000004351E-3,
,,,3.64400029,-72.000004351E-3,
,,,3.64600015,-192.00000167E-3,
,,,3.64800024,-280.00000119E-3,
,,,3.65000010,-240.00000954E-3,
,,,3.65200019,-104.0000021E-3,
,,,3.65400028,40.00000283E-3,
,,,3.65600014,152.00001001E-3,
,,,3.65800023,152.00001001E-3,
,,,3.66000009,56.000001729E-3,
,,,3.66200018,-72.000004351E-3,
,,,3.66400027,-192.00000167E-3,
,,,3.66600013,-176.00001395E-3,
,,,3.66800022,-80.000005662E-3,
,,,3.67000008,56.000001729E-3,
,,,3.67200017,192.00000167E-3,
,,,3.67400026,192.00000167E-3,
,,,3.67600012,128.0000061E-3,
,,,3.67800021,-8.000000380E-3,
,,,3.68000007,-144.0000087E-3,
,,,3.68200016,-160.00001132E-3,
,,,3.68400025,-128.0000061E-3,
,,,3.68600011,24.00000021E-3,
,,,3.68800020,144.0000087E-3,
,,,3.69000006,208.00000429E-3,
,,,3.69200015,168.00001264E-3,
,,,3.69400024,32.00000152E-3,
,,,3.69600010,-104.0000021E-3,
,,,3.69800019,-192.00000167E-3,
,,,3.70000029,-160.00001132E-3,
,,,3.70200014,-24.00000021E-3,
,,,3.70400023,112.0000035E-3,
,,,3.70600009,208.00000429E-3,
,,,3.70800018,176.00001395E-3,
,,,3.71000028,72.000004351E-3,
,,,3.71200013,-64.000003040E-3,
,,,3.71400023,-176.00001395E-3,
,,,3.71600008,-168.00001264E-3,
,,,3.71800017,-80.000005662E-3,
,,,3.72000027,48.00000042E-3,
,,,3.72200012,184.00001526E-3,
,,,3.72400022,200.00000298E-3,
,,,3.72600007,128.0000061E-3,
,,,3.72800016,-24.00000021E-3,
,,,3.73000026,-152.00001001E-3,
,,,3.73200011,-176.00001395E-3,
,,,3.73400021,-144.0000087E-3,
,,,3.73600006,8.000000380E-3,
,,,3.73800015,144.0000087E-3,
,,,3.74000025,192.00000167E-3,
,,,3.74200010,168.00001264E-3,
,,,3.74400020,16.0000008E-3,
,,,3.74600029,-120.0000048E-3,
,,,3.74800014,-192.00000167E-3,
,,,3.75000024,-160.00001132E-3,
,,,3.75200009,-24.00000021E-3,
,,,3.75400019,96.000000834E-3,
,,,3.75600028,208.00000429E-3,
,,,3.75800014,176.00001395E-3,
,,,3.76000023,64.000003040E-3,
,,,3.76200008,-56.000001729E-3,
,,,3.76400018,-192.00000167E-3,
,,,3.76600027,-184.00001526E-3,
,,,3.76800013,-80.000005662E-3,
,,,3.77000022,64.000003040E-3,
,,,3.77200007,176.00001395E-3,
,,,3.77400017,192.00000167E-3,
,,,3.77600026,120.0000048E-3,
,,,3.77800012,-24.00000021E-3,
,,,3.78000021,-152.00001001E-3,
,,,3.78200006,-176.00001395E-3,
,,,3.78400016,-136.0000074E-3,
,,,3.78600025,16.0000008E-3,
,,,3.78800011,144.0000087E-3,
,,,3.79000020,200.00000298E-3,
,,,3.79200029,168.00001264E-3,
,,,3.79400015,16.0000008E-3,
,,,3.79600024,-104.0000021E-3,
,,,3.79800010,-192.00000167E-3,
,,,3.80000019,-160.00001132E-3,
,,,3.80200028,-16.0000008E-3,
,,,3.80400014,104.0000021E-3,
,,,3.80600023,216.00000560E-3,
,,,3.80800009,184.00001526E-3,
,,,3.81000018,80.000005662E-3,
,,,3.81200027,-72.000004351E-3,
,,,3.81400013,-184.00001526E-3,
,,,3.81600022,-168.00001264E-3,
,,,3.81800008,-72.000004351E-3,
,,,3.82000017,80.000005662E-3,
,,,3.82200027,184.00001526E-3,
,,,3.82400012,200.00000298E-3,
,,,3.82600021,120.0000048E-3,
,,,3.82800007,-32.00000152E-3,
,,,3.83000016,-160.00001132E-3,
,,,3.83200026,-184.00001526E-3,
,,,3.83400011,-120.0000048E-3,
,,,3.83600020,24.00000021E-3,
,,,3.83800030,144.0000087E-3,
,,,3.84000015,208.00000429E-3,
,,,3.84200025,160.00001132E-3,
,,,3.84400010,24.00000021E-3,
,,,3.84600019,-120.0000048E-3,
,,,3.84800029,-192.00000167E-3,
,,,3.85000014,-160.00001132E-3,
,,,3.85200024,-16.0000008E-3,
,,,3.85400009,112.0000035E-3,
,,,3.85600019,200.00000298E-3,
,,,3.85800028,168.00001264E-3,
,,,3.86000013,48.00000042E-3,
,,,3.86200023,-88.000006974E-3,
,,,3.86400008,-192.00000167E-3,
,,,3.86600018,-168.00001264E-3,
,,,3.86800027,-72.000004351E-3,
,,,3.87000012,56.000001729E-3,
,,,3.87200022,176.00001395E-3,
,,,3.87400007,184.00001526E-3,
,,,3.87600017,104.0000021E-3,
,,,3.87800026,-40.00000283E-3,
,,,3.88000011,-184.00001526E-3,
,,,3.88200021,-200.00000298E-3,
,,,3.88400030,-144.0000087E-3,
,,,3.88600016,8.000000380E-3,
,,,3.88800025,128.0000061E-3,
,,,3.89000010,176.00001395E-3,
,,,3.89200020,128.0000061E-3,
,,,3.89400029,-8.000000380E-3,
,,,3.89600015,-152.00001001E-3,
,,,3.89800024,-216.00000560E-3,
,,,3.90000010,-168.00001264E-3,
,,,3.90200019,-32.00000152E-3,
,,,3.90400028,72.000004351E-3,
,,,3.90600014,176.00001395E-3,
,,,3.90800023,152.00001001E-3,
,,,3.91000009,32.00000152E-3,
,,,3.91200018,-88.000006974E-3,
,,,3.91400027,-216.00000560E-3,
,,,3.91600013,-192.00000167E-3,
,,,3.91800022,-96.000000834E-3,
,,,3.92000008,40.00000283E-3,
,,,3.92200017,160.00001132E-3,
,,,3.92400026,168.00001264E-3,
,,,3.92600012,96.000000834E-3,
,,,3.92800021,-56.000001729E-3,
,,,3.93000031,-184.00001526E-3,
,,,3.93200016,-216.00000560E-3,
,,,3.93400025,-136.0000074E-3,
,,,3.93600011,0.0,
,,,3.93800020,128.0000061E-3,
,,,3.94000030,184.00001526E-3,
,,,3.94200015,128.0000061E-3,
,,,3.94400024,0.0,
,,,3.94600010,-136.0000074E-3,
,,,3.94800019,-200.00000298E-3,
,,,3.95000029,-176.00001395E-3,
,,,3.95200014,-32.00000152E-3,
,,,3.95400023,96.000000834E-3,
,,,3.95600009,184.00001526E-3,
,,,3.95800018,176.00001395E-3,
,,,3.96000028,56.000001729E-3,
,,,3.96200013,-88.000006974E-3,
,,,3.96400023,-200.00000298E-3,
,,,3.96600008,-200.00000298E-3,
,,,3.96800017,-80.000005662E-3,
,,,3.97000027,48.00000042E-3,
,,,3.97200012,168.00001264E-3,
,,,3.97400022,176.00001395E-3,
,,,3.97600007,96.000000834E-3,
,,,3.97800016,-56.000001729E-3,
,,,3.98000026,-176.00001395E-3,
,,,3.98200011,-192.00000167E-3,
,,,3.98400021,-112.0000035E-3,
,,,3.98600030,32.00000152E-3,
,,,3.98800015,152.00001001E-3,
,,,3.99000025,184.00001526E-3,
,,,3.99200010,136.0000074E-3,
,,,3.99400020,0.0,
,,,3.99600029,-136.0000074E-3,
,,,3.99800014,-200.00000298E-3,
,,,4.00000000,-160.00001132E-3,
,,,4.00200033,-32.00000152E-3,
,,,4.00400019,96.000000834E-3,
,,,4.00600004,192.00000167E-3,
,,,4.00800037,176.00001395E-3,
,,,4.01000023,32.00000152E-3,
,,,4.01200008,-80.000005662E-3,
,,,4.01400042,-208.00000429E-3,
,,,4.01600027,-184.00001526E-3,
,,,4.01800013,-72.000004351E-3,
,,,4.01999998,64.000003040E-3,
,,,4.02200031,176.00001395E-3,
,,,4.02400017,168.00001264E-3,
,,,4.02600002,80.000005662E-3,
,,,4.02800035,-32.00000152E-3,
,,,4.03000021,-176.00001395E-3,
,,,4.03200006,-176.00001395E-3,
,,,4.03400040,-120.0000048E-3,
,,,4.03600025,16.0000008E-3,
,,,4.03800011,136.0000074E-3,
,,,4.03999996,200.00000298E-3,
,,,4.04200029,128.0000061E-3,
,,,4.04400015,0.0,
,,,4.04600000,-128.0000061E-3,
,,,4.04800034,-200.00000298E-3,
,,,4.05000019,-160.00001132E-3,
,,,4.05200005,-24.00000021E-3,
,,,4.05400038,112.0000035E-3,
,,,4.05600023,208.00000429E-3,
,,,4.05800009,176.00001395E-3,
,,,4.06000042,40.00000283E-3,
,,,4.06200027,-104.0000021E-3,
,,,4.06400013,-192.00000167E-3,
,,,4.06599998,-176.00001395E-3,
,,,4.06800032,-72.000004351E-3,
,,,4.07000017,72.000004351E-3,
,,,4.07200003,176.00001395E-3,
,,,4.07400036,176.00001395E-3,
,,,4.07600021,96.000000834E-3,
,,,4.07800007,-48.00000042E-3,
,,,4.08000040,-176.00001395E-3,
,,,4.08200026,-200.00000298E-3,
,,,4.08400011,-120.0000048E-3,
,,,4.08599997,16.0000008E-3,
,,,4.08800030,136.0000074E-3,
,,,4.09000015,192.00000167E-3,
,,,4.09200001,144.0000087E-3,
,,,4.09400034,-8.000000380E-3,
,,,4.09600019,-128.0000061E-3,
,,,4.09800005,-200.00000298E-3,
,,,4.10000038,-152.00001001E-3,
,,,4.10200024,-16.0000008E-3,
,,,4.10400009,120.0000048E-3,
,,,4.10600042,192.00000167E-3,
,,,4.10800028,168.00001264E-3,
,,,4.11000013,32.00000152E-3,
,,,4.11199999,-96.000000834E-3,
,,,4.11400032,-200.00000298E-3,
,,,4.11600018,-176.00001395E-3,
,,,4.11800003,-64.000003040E-3,
,,,4.12000036,72.000004351E-3,
,,,4.12200022,176.00001395E-3,
,,,4.12400007,176.00001395E-3,
,,,4.12600040,88.000006974E-3,
,,,4.12800026,-40.00000283E-3,
,,,4.13000011,-176.00001395E-3,
,,,4.13199997,-192.00000167E-3,
,,,4.13400030,-128.0000061E-3,
,,,4.13600016,24.00000021E-3,
,,,4.13800001,152.00001001E-3,
,,,4.14000034,192.00000167E-3,
,,,4.14200020,144.0000087E-3,
,,,4.14400005,-8.000000380E-3,
,,,4.14600039,-144.0000087E-3,
,,,4.14800024,-208.00000429E-3,
,,,4.15000010,-160.00001132E-3,
,,,4.15200043,-8.000000380E-3,
,,,4.15400028,112.0000035E-3,
,,,4.15600014,208.00000429E-3,
,,,4.15799999,160.00001132E-3,
,,,4.16000032,32.00000152E-3,
,,,4.16200018,-96.000000834E-3,
,,,4.16400003,-192.00000167E-3,
,,,4.16600037,-192.00000167E-3,
,,,4.16800022,-56.000001729E-3,
,,,4.17000008,64.000003040E-3,
,,,4.17200041,176.00001395E-3,
,,,4.17400026,192.00000167E-3,
,,,4.17600012,96.000000834E-3,
,,,4.17799997,-48.00000042E-3,
,,,4.18000031,-176.00001395E-3,
,,,4.18200016,-168.00001264E-3,
,,,4.18400002,-112.0000035E-3,
,,,4.18600035,32.00000152E-3,
,,,4.18800020,160.00001132E-3,
,,,4.19000006,184.00001526E-3,
,,,4.19200039,128.0000061E-3,
,,,4.19400024,-16.0000008E-3,
,,,4.19600010,-120.0000048E-3,
,,,4.19800043,-200.00000298E-3,
,,,4.20000029,-152.00001001E-3,
,,,4.20200014,-16.0000008E-3,
,,,4.20400000,112.0000035E-3,
,,,4.20600033,200.00000298E-3,
,,,4.20800018,168.00001264E-3,
,,,4.21000004,32.00000152E-3,
,,,4.21200037,-88.000006974E-3,
,,,4.21400023,-192.00000167E-3,
,,,4.21600008,-176.00001395E-3,
,,,4.21800041,-56.000001729E-3,
,,,4.22000027,80.000005662E-3,
,,,4.22200012,176.00001395E-3,
,,,4.22399998,192.00000167E-3,
,,,4.22600031,88.000006974E-3,
,,,4.22800016,-56.000001729E-3,
,,,4.23000002,-192.00000167E-3,
,,,4.23200035,-184.00001526E-3,
,,,4.23400021,-104.0000021E-3,
,,,4.23600006,48.00000042E-3,
,,,4.23800039,160.00001132E-3,
,,,4.24000025,192.00000167E-3,
,,,4.24200010,128.0000061E-3,
,,,4.24400043,-8.000000380E-3,
,,,4.24600029,-136.0000074E-3,
,,,4.24800014,-192.00000167E-3,
,,,4.25000000,-152.00001001E-3,
,,,4.25200033,0.0,
,,,4.25400019,112.0000035E-3,
,,,4.25600004,200.00000298E-3,
,,,4.25800037,160.00001132E-3,
,,,4.26000023,48.00000042E-3,
,,,4.26200008,-104.0000021E-3,
,,,4.26400042,-200.00000298E-3,
,,,4.26600027,-176.00001395E-3,
,,,4.26800013,-64.000003040E-3,
,,,4.26999998,80.000005662E-3,
,,,4.27200031,184.00001526E-3,
,,,4.27400017,184.00001526E-3,
,,,4.27600002,80.000005662E-3,
,,,4.27800035,-64.000003040E-3,
,,,4.28000021,-184.00001526E-3,
,,,4.28200006,-184.00001526E-3,
,,,4.28400040,-104.0000021E-3,
,,,4.28600025,48.00000042E-3,
,,,4.28800011,168.00001264E-3,
,,,4.29000044,192.00000167E-3,
,,,4.29200029,144.0000087E-3,
,,,4.29400015,-16.0000008E-3,
,,,4.29600000,-152.00001001E-3,
,,,4.29800034,-208.00000429E-3,
,,,4.30000019,-168.00001264E-3,
,,,4.30200005,-16.0000008E-3,
,,,4.30400038,128.0000061E-3,
,,,4.30600023,200.00000298E-3,
,,,4.30800009,160.00001132E-3,
,,,4.31000042,24.00000021E-3,
,,,4.31200027,-104.0000021E-3,
,,,4.31400013,-208.00000429E-3,
,,,4.31599998,-176.00001395E-3,
,,,4.31800032,-56.000001729E-3,
,,,4.32000017,80.000005662E-3,
,,,4.32200003,176.00001395E-3,
,,,4.32400036,176.00001395E-3,
,,,4.32600021,72.000004351E-3,
,,,4.32800007,-48.00000042E-3,
,,,4.33000040,-192.00000167E-3,
,,,4.33200026,-176.00001395E-3,
,,,4.33400011,-112.0000035E-3,
,,,4.33600044,48.00000042E-3,
,,,4.33800030,168.00001264E-3,
,,,4.34000015,200.00000298E-3,
,,,4.34200001,128.0000061E-3,
,,,4.34400034,-16.0000008E-3,
,,,4.34600019,-152.00001001E-3,
,,,4.34800005,-200.00000298E-3,
,,,4.35000038,-160.00001132E-3,
,,,4.35200024,0.0,
,,,4.35400009,128.0000061E-3,
,,,4.35600042,208.00000429E-3,
,,,4.35800028,152.00001001E-3,
,,,4.36000013,32.00000152E-3,
,,,4.36199999,-112.0000035E-3,
,,,4.36400032,-200.00000298E-3,
,,,4.36600018,-176.00001395E-3,
,,,4.36800003,-40.00000283E-3,
,,,4.37000036,80.000005662E-3,
,,,4.37200022,192.00000167E-3,
,,,4.37400007,176.00001395E-3,
,,,4.37600040,72.000004351E-3,
,,,4.37800026,-72.000004351E-3,
,,,4.38000011,-192.00000167E-3,
,,,4.38200045,-200.00000298E-3,
,,,4.38400030,-104.0000021E-3,
,,,4.38600016,32.00000152E-3,
,,,4.38800001,160.00001132E-3,
,,,4.39000034,184.00001526E-3,
,,,4.39200020,128.0000061E-3,
,,,4.39400005,-24.00000021E-3,
,,,4.39600039,-160.00001132E-3,
,,,4.39800024,-200.00000298E-3,
,,,4.40000010,-144.0000087E-3,
,,,4.40200043,-8.000000380E-3,
,,,4.40400028,136.0000074E-3,
,,,4.40600014,192.00000167E-3,
,,,4.40799999,144.0000087E-3,
,,,4.41000032,8.000000380E-3,
,,,4.41200018,-96.000000834E-3,
,,,4.41400003,-192.00000167E-3,
,,,4.41600037,-184.00001526E-3,
,,,4.41800022,-56.000001729E-3,
,,,4.42000008,80.000005662E-3,
,,,4.42200041,192.00000167E-3,
,,,4.42400026,184.00001526E-3,
,,,4.42600012,72.000004351E-3,
,,,4.42799997,-72.000004351E-3,
,,,4.43000031,-192.00000167E-3,
,,,4.43200016,-200.00000298E-3,
,,,4.43400002,-104.0000021E-3,
,,,4.43600035,48.00000042E-3,
,,,4.43800020,168.00001264E-3,
,,,4.44000006,192.00000167E-3,
,,,4.44200039,120.0000048E-3,
,,,4.44400024,-24.00000021E-3,
,,,4.44600010,-160.00001132E-3,
,,,4.44800043,-192.00000167E-3,
,,,4.45000029,-144.0000087E-3,
,,,4.45200014,8.000000380E-3,
,,,4.45400000,136.0000074E-3,
,,,4.45600033,192.00000167E-3,
,,,4.45800018,160.00001132E-3,
,,,4.46000004,24.00000021E-3,
,,,4.46200037,-112.0000035E-3,
,,,4.46400023,-200.00000298E-3,
,,,4.46600008,-160.00001132E-3,
,,,4.46800041,-16.0000008E-3,
,,,4.47000027,112.0000035E-3,
,,,4.47200012,240.00000954E-3,
,,,4.47399998,224.00000691E-3,
,,,4.47600031,120.0000048E-3,
,,,4.47800016,-8.000000380E-3,
,,,4.48000002,-112.0000035E-3,
,,,4.48200035,-88.000006974E-3,
,,,4.48400021,24.00000021E-3,
,,,4.48600006,168.00001264E-3,
,,,4.48800039,288.00001740E-3,
,,,4.49000025,288.00001740E-3,
,,,4.49200010,200.00000298E-3,
,,,4.49400043,24.00000021E-3,
,,,4.49600029,-160.00001132E-3,
,,,4.49800014,-248.00001085E-3,
,,,4.50000000,-224.00000691E-3,
,,,4.50200033,-96.000000834E-3,
,,,4.50400019,24.00000021E-3,
,,,4.50600004,80.000005662E-3,
,,,4.50800037,56.000001729E-3,
,,,4.51000023,-88.000006974E-3,
,,,4.51200008,-216.00000560E-3,
,,,4.51400042,-304.00002003E-3,
,,,4.51600027,-263.99999857E-3,
,,,4.51800013,-120.0000048E-3,
,,,4.51999998,24.00000021E-3,
,,,4.52200031,136.0000074E-3,
,,,4.52400017,128.0000061E-3,
,,,4.52600002,24.00000021E-3,
,,,4.52800035,-96.000000834E-3,
,,,4.53000021,-208.00000429E-3,
,,,4.53200006,-192.00000167E-3,
,,,4.53400040,-88.000006974E-3,
,,,4.53600025,64.000003040E-3,
,,,4.53800011,168.00001264E-3,
,,,4.54000044,200.00000298E-3,
,,,4.54200029,128.0000061E-3,
,,,4.54400015,-16.0000008E-3,
,,,4.54600000,-136.0000074E-3,
,,,4.54800034,-184.00001526E-3,
,,,4.55000019,-112.0000035E-3,
,,,4.55200005,24.00000021E-3,
,,,4.55400038,168.00001264E-3,
,,,4.55600023,208.00000429E-3,
,,,4.55800009,168.00001264E-3,
,,,4.56000042,32.00000152E-3,
,,,4.56200027,-104.0000021E-3,
,,,4.56400013,-184.00001526E-3,
,,,4.56599998,-160.00001132E-3,
,,,4.56800032,-16.0000008E-3,
,,,4.57000017,112.0000035E-3,
,,,4.57200003,208.00000429E-3,
,,,4.57400036,192.00000167E-3,
,,,4.57600021,56.000001729E-3,
,,,4.57800007,-72.000004351E-3,
,,,4.58000040,-184.00001526E-3,
,,,4.58200026,-176.00001395E-3,
,,,4.58400011,-80.000005662E-3,
,,,4.58600044,72.000004351E-3,
,,,4.58800030,192.00000167E-3,
,,,4.59000015,192.00000167E-3,
,,,4.59200001,120.0000048E-3,
,,,4.59400034,-32.00000152E-3,
,,,4.59600019,-152.00001001E-3,
,,,4.59800005,-200.00000298E-3,
,,,4.60000038,-128.0000061E-3,
,,,4.60200024,16.0000008E-3,
,,,4.60400009,152.00001001E-3,
,,,4.60600042,216.00000560E-3,
,,,4.60800028,168.00001264E-3,
,,,4.61000013,8.000000380E-3,
,,,4.61199999,-120.0000048E-3,
,,,4.61400032,-200.00000298E-3,
,,,4.61600018,-160.00001132E-3,
,,,4.61800003,-16.0000008E-3,
,,,4.62000036,104.0000021E-3,
,,,4.62200022,200.00000298E-3,
,,,4.62400007,184.00001526E-3,
,,,4.62600040,56.000001729E-3,
,,,4.62800026,-64.000003040E-3,
,,,4.63000011,-192.00000167E-3,
,,,4.63200045,-184.00001526E-3,
,,,4.63400030,-80.000005662E-3,
,,,4.63600016,64.000003040E-3,
,,,4.63800001,192.00000167E-3,
,,,4.64000034,192.00000167E-3,
,,,4.64200020,112.0000035E-3,
,,,4.64400005,-40.00000283E-3,
,,,4.64600039,-176.00001395E-3,
,,,4.64800024,-192.00000167E-3,
,,,4.65000010,-128.0000061E-3,
,,,4.65200043,32.00000152E-3,
,,,4.65400028,160.00001132E-3,
,,,4.65600014,208.00000429E-3,
,,,4.65799999,144.0000087E-3,
,,,4.66000032,16.0000008E-3,
,,,4.66200018,-120.0000048E-3,
,,,4.66400003,-200.00000298E-3,
,,,4.66600037,-160.00001132E-3,
,,,4.66800022,-24.00000021E-3,
,,,4.67000008,112.0000035E-3,
,,,4.67200041,208.00000429E-3,
,,,4.67400026,184.00001526E-3,
,,,4.67600012,64.000003040E-3,
,,,4.67800045,-72.000004351E-3,
,,,4.68000031,-192.00000167E-3,
,,,4.68200016,-168.00001264E-3,
,,,4.68400002,-72.000004351E-3,
,,,4.68600035,80.000005662E-3,
,,,4.68800020,200.00000298E-3,
,,,4.69000006,200.00000298E-3,
,,,4.69200039,112.0000035E-3,
,,,4.69400024,-32.00000152E-3,
,,,4.69600010,-176.00001395E-3,
,,,4.69800043,-192.00000167E-3,
,,,4.70000029,-120.0000048E-3,
,,,4.70200014,24.00000021E-3,
,,,4.70400000,152.00001001E-3,
,,,4.70600033,216.00000560E-3,
,,,4.70800018,160.00001132E-3,
,,,4.71000004,8.000000380E-3,
,,,4.71200037,-112.0000035E-3,
,,,4.71400023,-208.00000429E-3,
,,,4.71600008,-152.00001001E-3,
,,,4.71800041,-16.0000008E-3,
,,,4.72000027,112.0000035E-3,
,,,4.72200012,224.00000691E-3,
,,,4.72400045,184.00001526E-3,
,,,4.72600031,48.00000042E-3,
,,,4.72800016,-80.000005662E-3,
,,,4.73000002,-200.00000298E-3,
,,,4.73200035,-176.00001395E-3,
,,,4.73400021,-72.000004351E-3,
,,,4.73600006,96.000000834E-3,
,,,4.73800039,192.00000167E-3,
,,,4.74000025,192.00000167E-3,
,,,4.74200010,112.0000035E-3,
,,,4.74400043,-56.000001729E-3,
,,,4.74600029,-184.00001526E-3,
,,,4.74800014,-192.00000167E-3,
,,,4.75000000,-136.0000074E-3,
,,,4.75200033,24.00000021E-3,
,,,4.75400019,136.0000074E-3,
,,,4.75600004,208.00000429E-3,
,,,4.75800037,128.0000061E-3,
,,,4.76000023,-24.00000021E-3,
,,,4.76200008,-152.00001001E-3,
,,,4.76400042,-232.00000823E-3,
,,,4.76600027,-192.00000167E-3,
,,,4.76800013,-40.00000283E-3,
,,,4.77000046,96.000000834E-3,
,,,4.77200031,192.00000167E-3,
,,,4.77400017,160.00001132E-3,
,,,4.77600002,24.00000021E-3,
,,,4.77800035,-120.0000048E-3,
,,,4.78000021,-216.00000560E-3,
,,,4.78200006,-192.00000167E-3,
,,,4.78400040,-80.000005662E-3,
,,,4.78600025,80.000005662E-3,
,,,4.78800011,168.00001264E-3,
,,,4.79000044,168.00001264E-3,
,,,4.79200029,88.000006974E-3,
,,,4.79400015,-64.000003040E-3,
,,,4.79600000,-184.00001526E-3,
,,,4.79800034,-192.00000167E-3,
,,,4.80000019,-136.0000074E-3,
,,,4.80200005,24.00000021E-3,
,,,4.80400038,136.0000074E-3,
,,,4.80600023,184.00001526E-3,
,,,4.80800009,144.0000087E-3,
,,,4.81000042,-16.0000008E-3,
,,,4.81200027,-152.00001001E-3,
,,,4.81400013,-216.00000560E-3,
,,,4.81600046,-176.00001395E-3,
,,,4.81800032,-8.000000380E-3,
,,,4.82000017,112.0000035E-3,
,,,4.82200003,200.00000298E-3,
,,,4.82400036,160.00001132E-3,
,,,4.82600021,40.00000283E-3,
,,,4.82800007,-104.0000021E-3,
,,,4.83000040,-216.00000560E-3,
,,,4.83200026,-184.00001526E-3,
,,,4.83400011,-72.000004351E-3,
,,,4.83600044,64.000003040E-3,
,,,4.83800030,192.00000167E-3,
,,,4.84000015,176.00001395E-3,
,,,4.84200001,96.000000834E-3,
,,,4.84400034,-48.00000042E-3,
,,,4.84600019,-192.00000167E-3,
,,,4.84800005,-200.00000298E-3,
,,,4.85000038,-136.0000074E-3,
,,,4.85200024,24.00000021E-3,
,,,4.85400009,152.00001001E-3,
,,,4.85600042,208.00000429E-3,
,,,4.85800028,136.0000074E-3,
,,,4.86000013,-8.000000380E-3,
,,,4.86200047,-160.00001132E-3,
,,,4.86400032,-216.00000560E-3,
,,,4.86600018,-160.00001132E-3,
,,,4.86800003,-8.000000380E-3,
,,,4.87000036,120.0000048E-3,
,,,4.87200022,208.00000429E-3,
,,,4.87400007,160.00001132E-3,
,,,4.87600040,32.00000152E-3,
,,,4.87800026,-104.0000021E-3,
,,,4.88000011,-200.00000298E-3,
,,,4.88200045,-184.00001526E-3,
,,,4.88400030,-64.000003040E-3,
,,,4.88600016,80.000005662E-3,
,,,4.88800001,192.00000167E-3,
,,,4.89000034,192.00000167E-3,
,,,4.89200020,104.0000021E-3,
,,,4.89400005,-56.000001729E-3,
,,,4.89600039,-192.00000167E-3,
,,,4.89800024,-192.00000167E-3,
,,,4.90000010,-120.0000048E-3,
,,,4.90200043,32.00000152E-3,
,,,4.90400028,160.00001132E-3,
,,,4.90600014,208.00000429E-3,
,,,4.90800047,144.0000087E-3,
,,,4.91000032,0.0,
,,,4.91200018,-152.00001001E-3,
,,,4.91400003,-208.00000429E-3,
,,,4.91600037,-160.00001132E-3,
,,,4.91800022,-16.0000008E-3,
,,,4.92000008,112.0000035E-3,
,,,4.92200041,216.00000560E-3,
,,,4.92400026,168.00001264E-3,
,,,4.92600012,40.00000283E-3,
,,,4.92800045,-96.000000834E-3,
,,,4.93000031,-200.00000298E-3,
,,,4.93200016,-176.00001395E-3,
,,,4.93400002,-40.00000283E-3,
,,,4.93600035,72.000004351E-3,
,,,4.93800020,184.00001526E-3,
,,,4.94000006,200.00000298E-3,
,,,4.94200039,96.000000834E-3,
,,,4.94400024,-48.00000042E-3,
,,,4.94600010,-192.00000167E-3,
,,,4.94800043,-192.00000167E-3,
,,,4.95000029,-112.0000035E-3,
,,,4.95200014,40.00000283E-3,
,,,4.95400047,168.00001264E-3,
,,,4.95600033,208.00000429E-3,
,,,4.95800018,160.00001132E-3,
,,,4.96000004,-8.000000380E-3,
,,,4.96200037,-144.0000087E-3,
,,,4.96400023,-192.00000167E-3,
,,,4.96600008,-160.00001132E-3,
,,,4.96800041,0.0,
,,,4.97000027,112.0000035E-3,
,,,4.97200012,208.00000429E-3,
,,,4.97400045,168.00001264E-3,
,,,4.97600031,56.000001729E-3,
,,,4.97800016,-88.000006974E-3,
,,,4.98000002,-200.00000298E-3,
,,,4.98200035,-184.00001526E-3,
,,,4.98400021,-56.000001729E-3,
,,,4.98600006,88.000006974E-3,
,,,4.98800039,192.00000167E-3,
,,,4.99000025,176.00001395E-3,
,,,4.99200010,96.000000834E-3,
,,,4.99400043,-72.000004351E-3,
,,,4.99600029,-192.00000167E-3,
,,,4.99800014,-192.00000167E-3,
