Record Length,2500,Points,0.0,112.0000035E-3,
Sample Interval,2.0000001E-3,s,2.0000001E-3,16.0000008E-3,
Trigger Point,0.0,Samples,4.00000019E-3,-24.00000021E-3,
,,,6.00000005E-3,-8.000000380E-3,
,,,8.000000380E-3,32.00000152E-3,
,,,10.0000007E-3,104.0000021E-3,
Source,CH2,,12.0000001E-3,104.0000021E-3,
Vertical Units,Volts,,14.0000004E-3,56.000001729E-3,
Vertical Scale,200.00000950E-3,,16.0000008E-3,-32.00000152E-3,
Vertical Offset,0,,18.0000011E-3,-152.00001001E-3,
Horizontal Units,s,,20.0000014E-3,-224.00000691E-3,
Horizontal Scale,500.000023749E-3,,22.00000174E-3,-240.00000954E-3,
Pt Fmt,Y,,24.00000021E-3,-168.00001264E-3,
Yzero,0.0,,26.00000054E-3,-64.000003040E-3,
Probe Atten,1.000000,,28.00000086E-3,40.00000283E-3,
,,,30.00000119E-3,56.000001729E-3,
Note,TBS 1102B - 13:05:22   27/08/2018,,32.00000152E-3,0.0,
,,,34.00000185E-3,-88.000006974E-3,
,,,36.00000218E-3,-176.00001395E-3,
,,,38.00000250E-3,-192.00000167E-3,
,,,40.00000283E-3,-120.0000048E-3,
,,,42.00000316E-3,-32.00000152E-3,
,,,44.00000349E-3,80.000005662E-3,
,,,46.00000381E-3,136.0000074E-3,
,,,48.00000042E-3,96.000000834E-3,
,,,50.00000075E-3,16.0000008E-3,
,,,52.00000107E-3,-88.000006974E-3,
,,,54.00000140E-3,-136.0000074E-3,
,,,56.000001729E-3,-112.0000035E-3,
,,,58.000002056E-3,-24.00000021E-3,
,,,60.000002384E-3,72.000004351E-3,
,,,62.000002712E-3,144.0000087E-3,
,,,64.000003040E-3,128.0000061E-3,
,,,65.999999642E-3,56.000001729E-3,
,,,68.000003695E-3,-48.00000042E-3,
,,,70.000000298E-3,-112.0000035E-3,
,,,72.000004351E-3,-120.0000048E-3,
,,,74.000000954E-3,-56.000001729E-3,
,,,76.000005007E-3,48.00000042E-3,
,,,78.000001609E-3,136.0000074E-3,
,,,80.000005662E-3,144.0000087E-3,
,,,82.000002265E-3,96.000000834E-3,
,,,84.000006318E-3,0.0,
,,,86.000002921E-3,-104.0000021E-3,
,,,88.000006974E-3,-136.0000074E-3,
,,,90.000003576E-3,-88.000006974E-3,
,,,92.000007629E-3,0.0,
,,,94.000004232E-3,128.0000061E-3,
,,,96.000000834E-3,152.00001001E-3,
,,,98.000004888E-3,104.0000021E-3,
,,,100.0000015E-3,24.00000021E-3,
,,,102.0000055E-3,-88.000006974E-3,
,,,104.0000021E-3,-112.0000035E-3,
,,,106.0000062E-3,-112.0000035E-3,
,,,108.0000028E-3,-24.00000021E-3,
,,,110.0000069E-3,80.000005662E-3,
,,,112.0000035E-3,128.0000061E-3,
,,,114.0000075E-3,112.0000035E-3,
,,,116.0000041E-3,40.00000283E-3,
,,,118.0000082E-3,-48.00000042E-3,
,,,120.0000048E-3,-112.0000035E-3,
,,,122.0000088E-3,-136.0000074E-3,
,,,124.0000054E-3,-64.000003040E-3,
,,,126.0000020E-3,40.00000283E-3,
,,,128.0000061E-3,128.0000061E-3,
,,,130.0000101E-3,152.00001001E-3,
,,,131.9999993E-3,80.000005662E-3,
,,,134.0000033E-3,-16.0000008E-3,
,,,136.0000074E-3,-104.0000021E-3,
,,,138.0000114E-3,-136.0000074E-3,
,,,140.0000006E-3,-80.000005662E-3,
,,,142.0000046E-3,24.00000021E-3,
,,,144.0000087E-3,112.0000035E-3,
,,,146.0000128E-3,136.0000074E-3,
,,,148.0000019E-3,104.0000021E-3,
,,,150.00000596E-3,32.00000152E-3,
,,,152.00001001E-3,-80.000005662E-3,
,,,154.00001407E-3,-104.0000021E-3,
,,,156.00000322E-3,-96.000000834E-3,
,,,158.00000727E-3,-16.0000008E-3,
,,,160.00001132E-3,72.000004351E-3,
,,,162.00000048E-3,136.0000074E-3,
,,,164.00000453E-3,120.0000048E-3,
,,,166.00000858E-3,48.00000042E-3,
,,,168.00001264E-3,-48.00000042E-3,
,,,170.00000179E-3,-120.0000048E-3,
,,,172.00000584E-3,-128.0000061E-3,
,,,174.00000989E-3,-48.00000042E-3,
,,,176.00001395E-3,40.00000283E-3,
,,,178.00000310E-3,136.0000074E-3,
,,,180.00000715E-3,152.00001001E-3,
,,,182.00001121E-3,80.000005662E-3,
,,,184.00001526E-3,-16.0000008E-3,
,,,186.00000441E-3,-104.0000021E-3,
,,,188.00000846E-3,-128.0000061E-3,
,,,190.00001252E-3,-72.000004351E-3,
,,,192.00000167E-3,8.000000380E-3,
,,,194.00000572E-3,112.0000035E-3,
,,,196.00000978E-3,136.0000074E-3,
,,,198.00001383E-3,112.0000035E-3,
,,,200.00000298E-3,24.00000021E-3,
,,,202.00000703E-3,-80.000005662E-3,
,,,204.00001109E-3,-136.0000074E-3,
,,,206.00001514E-3,-96.000000834E-3,
,,,208.00000429E-3,-8.000000380E-3,
,,,210.00000834E-3,88.000006974E-3,
,,,212.00001240E-3,136.0000074E-3,
,,,214.00001645E-3,144.0000087E-3,
,,,216.00000560E-3,56.000001729E-3,
,,,218.00000966E-3,-48.00000042E-3,
,,,220.00001371E-3,-120.0000048E-3,
,,,222.00001776E-3,-112.0000035E-3,
,,,224.00000691E-3,-40.00000283E-3,
,,,226.00001097E-3,48.00000042E-3,
,,,228.00001502E-3,144.0000087E-3,
,,,230.00000417E-3,136.0000074E-3,
,,,232.00000823E-3,80.000005662E-3,
,,,234.00001228E-3,-24.00000021E-3,
,,,236.00001633E-3,-104.0000021E-3,
,,,238.00000548E-3,-120.0000048E-3,
,,,240.00000954E-3,-72.000004351E-3,
,,,242.00001359E-3,24.00000021E-3,
,,,244.00001764E-3,112.0000035E-3,
,,,246.00000679E-3,136.0000074E-3,
,,,248.00001085E-3,104.0000021E-3,
,,,250.00000000E-3,8.000000380E-3,
,,,252.00000405E-3,-104.0000021E-3,
,,,254.00000811E-3,-144.0000087E-3,
,,,256.00001216E-3,-112.0000035E-3,
,,,258.00001621E-3,-40.00000283E-3,
,,,260.00002027E-3,80.000005662E-3,
,,,262.00002432E-3,136.0000074E-3,
,,,263.99999857E-3,120.0000048E-3,
,,,266.00000262E-3,32.00000152E-3,
,,,268.00000668E-3,-80.000005662E-3,
,,,270.00001073E-3,-136.0000074E-3,
,,,272.00001478E-3,-144.0000087E-3,
,,,274.00001884E-3,-56.000001729E-3,
,,,276.00002289E-3,40.00000283E-3,
,,,278.00002694E-3,120.0000048E-3,
,,,280.00000119E-3,120.0000048E-3,
,,,282.00000525E-3,56.000001729E-3,
,,,284.00000930E-3,-32.00000152E-3,
,,,286.00001335E-3,-136.0000074E-3,
,,,288.00001740E-3,-160.00001132E-3,
,,,290.00002146E-3,-96.000000834E-3,
,,,292.00002551E-3,-16.0000008E-3,
,,,293.99999976E-3,88.000006974E-3,
,,,296.00000381E-3,120.0000048E-3,
,,,298.00000787E-3,80.000005662E-3,
,,,300.00001192E-3,-8.000000380E-3,
,,,302.00001597E-3,-120.0000048E-3,
,,,304.00002003E-3,-168.00001264E-3,
,,,306.00002408E-3,-120.0000048E-3,
,,,308.00002813E-3,-40.00000283E-3,
,,,310.00000238E-3,80.000005662E-3,
,,,312.00000644E-3,128.0000061E-3,
,,,314.00001049E-3,112.0000035E-3,
,,,316.00001454E-3,16.0000008E-3,
,,,318.00001860E-3,-88.000006974E-3,
,,,320.00002265E-3,-144.0000087E-3,
,,,322.00002670E-3,-136.0000074E-3,
,,,324.00000095E-3,-48.00000042E-3,
,,,326.00000501E-3,32.00000152E-3,
,,,328.00000906E-3,128.0000061E-3,
,,,330.00001311E-3,112.0000035E-3,
,,,332.00001717E-3,56.000001729E-3,
,,,334.00002122E-3,-40.00000283E-3,
,,,336.00002527E-3,-112.0000035E-3,
,,,338.00002933E-3,-152.00001001E-3,
,,,340.00000358E-3,-88.000006974E-3,
,,,342.00000763E-3,0.0,
,,,344.00001168E-3,112.0000035E-3,
,,,346.00001574E-3,136.0000074E-3,
,,,348.00001979E-3,96.000000834E-3,
,,,350.00002384E-3,-8.000000380E-3,
,,,352.00002789E-3,-104.0000021E-3,
,,,354.00000215E-3,-144.0000087E-3,
,,,356.00000620E-3,-104.0000021E-3,
,,,358.00001025E-3,-24.00000021E-3,
,,,360.00001431E-3,80.000005662E-3,
,,,362.00001836E-3,128.0000061E-3,
,,,364.00002241E-3,120.0000048E-3,
,,,366.00002646E-3,40.00000283E-3,
,,,368.00003052E-3,-80.000005662E-3,
,,,370.00000477E-3,-136.0000074E-3,
,,,372.00000882E-3,-144.0000087E-3,
,,,374.00001287E-3,-48.00000042E-3,
,,,376.00001693E-3,40.00000283E-3,
,,,378.00002098E-3,120.0000048E-3,
,,,380.00002503E-3,128.0000061E-3,
,,,382.00002909E-3,72.000004351E-3,
,,,384.00000334E-3,-32.00000152E-3,
,,,386.00000739E-3,-128.0000061E-3,
,,,388.00001144E-3,-152.00001001E-3,
,,,390.00001550E-3,-88.000006974E-3,
,,,392.00001955E-3,16.0000008E-3,
,,,394.00002360E-3,120.0000048E-3,
,,,396.00002766E-3,152.00001001E-3,
,,,398.00003171E-3,104.0000021E-3,
,,,400.00000596E-3,-8.000000380E-3,
,,,402.00001001E-3,-104.0000021E-3,
,,,404.000014067E-3,-144.0000087E-3,
,,,406.000018120E-3,-104.0000021E-3,
,,,408.000022173E-3,-16.0000008E-3,
,,,410.000026226E-3,80.000005662E-3,
,,,412.000030279E-3,144.0000087E-3,
,,,414.000034332E-3,112.0000035E-3,
,,,416.000008583E-3,24.00000021E-3,
,,,418.000012636E-3,-64.000003040E-3,
,,,420.000016689E-3,-128.0000061E-3,
,,,422.000020742E-3,-136.0000074E-3,
,,,424.000024796E-3,-48.00000042E-3,
,,,426.000028849E-3,56.000001729E-3,
,,,428.000032902E-3,120.0000048E-3,
,,,430.000007153E-3,136.0000074E-3,
,,,432.000011206E-3,64.000003040E-3,
,,,434.000015259E-3,-40.00000283E-3,
,,,436.000019312E-3,-136.0000074E-3,
,,,438.000023365E-3,-136.0000074E-3,
,,,440.000027418E-3,-80.000005662E-3,
,,,442.000031471E-3,8.000000380E-3,
,,,444.000035524E-3,112.0000035E-3,
,,,446.000009775E-3,152.00001001E-3,
,,,448.000013828E-3,112.0000035E-3,
,,,450.000017881E-3,-8.000000380E-3,
,,,452.000021935E-3,-104.0000021E-3,
,,,454.000025988E-3,-136.0000074E-3,
,,,456.000030041E-3,-112.0000035E-3,
,,,458.000034094E-3,0.0,
,,,460.000008345E-3,80.000005662E-3,
,,,462.000012398E-3,136.0000074E-3,
,,,464.000016451E-3,120.0000048E-3,
,,,466.000020504E-3,32.00000152E-3,
,,,468.000024557E-3,-72.000004351E-3,
,,,470.000028610E-3,-144.0000087E-3,
,,,472.000032663E-3,-120.0000048E-3,
,,,474.000036716E-3,-40.00000283E-3,
,,,476.000010967E-3,48.00000042E-3,
,,,478.000015020E-3,120.0000048E-3,
,,,480.000019073E-3,128.0000061E-3,
,,,482.000023127E-3,64.000003040E-3,
,,,484.000027180E-3,-32.00000152E-3,
,,,486.000031233E-3,-120.0000048E-3,
,,,488.000035286E-3,-144.0000087E-3,
,,,490.000009537E-3,-72.000004351E-3,
,,,492.000013590E-3,8.000000380E-3,
,,,494.000017643E-3,128.0000061E-3,
,,,496.000021696E-3,152.00001001E-3,
,,,498.000025749E-3,104.0000021E-3,
,,,500.000000000E-3,0.0,
,,,502.000033855E-3,-104.0000021E-3,
,,,504.000008106E-3,-144.0000087E-3,
,,,506.000041962E-3,-120.0000048E-3,
,,,508.000016212E-3,-16.0000008E-3,
,,,510.000050068E-3,80.000005662E-3,
,,,512.000024319E-3,136.0000074E-3,
,,,513.999998569E-3,120.0000048E-3,
,,,516.000032425E-3,32.00000152E-3,
,,,518.000006676E-3,-80.000005662E-3,
,,,520.000040531E-3,-128.0000061E-3,
,,,522.000014782E-3,-136.0000074E-3,
,,,524.000048637E-3,-48.00000042E-3,
,,,526.000022888E-3,56.000001729E-3,
,,,527.999997139E-3,136.0000074E-3,
,,,530.000030994E-3,144.0000087E-3,
,,,532.000005245E-3,72.000004351E-3,
,,,534.000039101E-3,-40.00000283E-3,
,,,536.000013351E-3,-120.0000048E-3,
,,,538.000047207E-3,-152.00001001E-3,
,,,540.000021458E-3,-80.000005662E-3,
,,,542.000055313E-3,16.0000008E-3,
,,,544.000029564E-3,112.0000035E-3,
,,,546.000003815E-3,136.0000074E-3,
,,,548.000037670E-3,96.000000834E-3,
,,,550.000011921E-3,0.0,
,,,552.000045776E-3,-88.000006974E-3,
,,,554.000020027E-3,-152.00001001E-3,
,,,556.000053883E-3,-120.0000048E-3,
,,,558.000028133E-3,-16.0000008E-3,
,,,560.000002384E-3,88.000006974E-3,
,,,562.000036240E-3,152.00001001E-3,
,,,564.000010490E-3,120.0000048E-3,
,,,566.000044346E-3,40.00000283E-3,
,,,568.000018597E-3,-80.000005662E-3,
,,,570.000052452E-3,-144.0000087E-3,
,,,572.000026703E-3,-144.0000087E-3,
,,,574.000000954E-3,-48.00000042E-3,
,,,576.000034809E-3,48.00000042E-3,
,,,578.000009060E-3,120.0000048E-3,
,,,580.000042915E-3,128.0000061E-3,
,,,582.000017166E-3,64.000003040E-3,
,,,584.000051022E-3,-32.00000152E-3,
,,,586.000025272E-3,-120.0000048E-3,
,,,587.999999523E-3,-136.0000074E-3,
,,,590.000033379E-3,-72.000004351E-3,
,,,592.000007629E-3,32.00000152E-3,
,,,594.000041485E-3,104.0000021E-3,
,,,596.000015736E-3,144.0000087E-3,
,,,598.000049591E-3,104.0000021E-3,
,,,600.000023842E-3,16.0000008E-3,
,,,602.000057697E-3,-104.0000021E-3,
,,,604.000031948E-3,-144.0000087E-3,
,,,606.000006199E-3,-112.0000035E-3,
,,,608.000040054E-3,-24.00000021E-3,
,,,610.000014305E-3,88.000006974E-3,
,,,612.000048161E-3,136.0000074E-3,
,,,614.000022411E-3,128.0000061E-3,
,,,616.000056267E-3,32.00000152E-3,
,,,618.000030518E-3,-56.000001729E-3,
,,,620.000004768E-3,-128.0000061E-3,
,,,622.000038624E-3,-112.0000035E-3,
,,,624.000012875E-3,-40.00000283E-3,
,,,626.000046730E-3,48.00000042E-3,
,,,628.000020981E-3,120.0000048E-3,
,,,630.000054836E-3,136.0000074E-3,
,,,632.000029087E-3,72.000004351E-3,
,,,634.000003338E-3,-40.00000283E-3,
,,,636.000037193E-3,-120.0000048E-3,
,,,638.000011444E-3,-128.0000061E-3,
,,,640.000045300E-3,-80.000005662E-3,
,,,642.000019550E-3,16.0000008E-3,
,,,644.000053406E-3,112.0000035E-3,
,,,646.000027657E-3,144.0000087E-3,
,,,648.000001907E-3,96.000000834E-3,
,,,650.000035763E-3,8.000000380E-3,
,,,652.000010014E-3,-88.000006974E-3,
,,,654.000043869E-3,-152.00001001E-3,
,,,656.000018120E-3,-112.0000035E-3,
,,,658.000051975E-3,-16.0000008E-3,
,,,660.000026226E-3,96.000000834E-3,
,,,662.000060081E-3,136.0000074E-3,
,,,664.000034332E-3,112.0000035E-3,
,,,666.000008583E-3,32.00000152E-3,
,,,668.000042439E-3,-72.000004351E-3,
,,,670.000016689E-3,-136.0000074E-3,
,,,672.000050545E-3,-128.0000061E-3,
,,,674.000024796E-3,-48.00000042E-3,
,,,676.000058651E-3,56.000001729E-3,
,,,678.000032902E-3,136.0000074E-3,
,,,680.000007153E-3,136.0000074E-3,
,,,682.000041008E-3,88.000006974E-3,
,,,684.000015259E-3,-40.00000283E-3,
,,,686.000049114E-3,-120.0000048E-3,
,,,688.000023365E-3,-144.0000087E-3,
,,,690.000057220E-3,-64.000003040E-3,
,,,692.000031471E-3,24.00000021E-3,
,,,694.000005722E-3,112.0000035E-3,
,,,696.000039577E-3,144.0000087E-3,
,,,698.000013828E-3,104.0000021E-3,
,,,700.000047684E-3,16.0000008E-3,
,,,702.000021935E-3,-96.000000834E-3,
,,,704.000055790E-3,-144.0000087E-3,
,,,706.000030041E-3,-96.000000834E-3,
,,,708.000004292E-3,-8.000000380E-3,
,,,710.000038147E-3,96.000000834E-3,
,,,712.000012398E-3,144.0000087E-3,
,,,714.000046253E-3,128.0000061E-3,
,,,716.000020504E-3,32.00000152E-3,
,,,718.000054359E-3,-64.000003040E-3,
,,,720.000028610E-3,-128.0000061E-3,
,,,722.000062466E-3,-136.0000074E-3,
,,,724.000036716E-3,-48.00000042E-3,
,,,726.000010967E-3,64.000003040E-3,
,,,728.000044823E-3,144.0000087E-3,
,,,730.000019073E-3,136.0000074E-3,
,,,732.000052929E-3,72.000004351E-3,
,,,734.000027180E-3,-40.00000283E-3,
,,,736.000061035E-3,-120.0000048E-3,
,,,738.000035286E-3,-144.0000087E-3,
,,,740.000009537E-3,-72.000004351E-3,
,,,742.000043392E-3,16.0000008E-3,
,,,744.000017643E-3,112.0000035E-3,
,,,746.000051498E-3,144.0000087E-3,
,,,748.000025749E-3,88.000006974E-3,
,,,750.000059605E-3,-8.000000380E-3,
,,,752.000033855E-3,-104.0000021E-3,
,,,754.000008106E-3,-152.00001001E-3,
,,,756.000041962E-3,-120.0000048E-3,
,,,758.000016212E-3,-24.00000021E-3,
,,,760.000050068E-3,88.000006974E-3,
,,,762.000024319E-3,120.0000048E-3,
,,,764.000058174E-3,120.0000048E-3,
,,,766.000032425E-3,40.00000283E-3,
,,,768.000006676E-3,-64.000003040E-3,
,,,770.000040531E-3,-144.0000087E-3,
,,,772.000014782E-3,-144.0000087E-3,
,,,774.000048637E-3,-56.000001729E-3,
,,,776.000022888E-3,56.000001729E-3,
,,,778.000056744E-3,136.0000074E-3,
,,,780.000030994E-3,152.00001001E-3,
,,,782.000064850E-3,64.000003040E-3,
,,,784.000039101E-3,-32.00000152E-3,
,,,786.000013351E-3,-128.0000061E-3,
,,,788.000047207E-3,-152.00001001E-3,
,,,790.000021458E-3,-56.000001729E-3,
,,,792.000055313E-3,16.0000008E-3,
,,,794.000029564E-3,112.0000035E-3,
,,,796.000063419E-3,136.0000074E-3,
,,,798.000037670E-3,88.000006974E-3,
,,,800.000011921E-3,-8.000000380E-3,
,,,802.000045776E-3,-96.000000834E-3,
,,,804.000020027E-3,-144.0000087E-3,
,,,806.000053883E-3,-112.0000035E-3,
,,,808.000028133E-3,-32.00000152E-3,
,,,810.000061989E-3,88.000006974E-3,
,,,812.000036240E-3,152.00001001E-3,
,,,814.000010490E-3,120.0000048E-3,
,,,816.000044346E-3,32.00000152E-3,
,,,818.000018597E-3,-72.000004351E-3,
,,,820.000052452E-3,-128.0000061E-3,
,,,822.000026703E-3,-120.0000048E-3,
,,,824.000060558E-3,-24.00000021E-3,
,,,826.000034809E-3,72.000004351E-3,
,,,828.000068665E-3,168.00001264E-3,
,,,830.000042915E-3,168.00001264E-3,
,,,832.000017166E-3,128.0000061E-3,
,,,834.000051022E-3,32.00000152E-3,
,,,836.000025272E-3,-48.00000042E-3,
,,,838.000059128E-3,-48.00000042E-3,
,,,840.000033379E-3,32.00000152E-3,
,,,842.000067234E-3,112.0000035E-3,
,,,844.000041485E-3,216.00000560E-3,
,,,846.000015736E-3,240.00000954E-3,
,,,848.000049591E-3,168.00001264E-3,
,,,850.000023842E-3,40.00000283E-3,
,,,852.000057697E-3,-128.0000061E-3,
,,,854.000031948E-3,-200.00000298E-3,
,,,856.000065804E-3,-192.00000167E-3,
,,,858.000040054E-3,-104.0000021E-3,
,,,860.000014305E-3,-8.000000380E-3,
,,,862.000048161E-3,32.00000152E-3,
,,,864.000022411E-3,32.00000152E-3,
,,,866.000056267E-3,-56.000001729E-3,
,,,868.000030518E-3,-152.00001001E-3,
,,,870.000064373E-3,-216.00000560E-3,
,,,872.000038624E-3,-216.00000560E-3,
,,,874.000012875E-3,-112.0000035E-3,
,,,876.000046730E-3,-8.000000380E-3,
,,,878.000020981E-3,88.000006974E-3,
,,,880.000054836E-3,112.0000035E-3,
,,,882.000029087E-3,40.00000283E-3,
,,,884.000062943E-3,-40.00000283E-3,
,,,886.000037193E-3,-128.0000061E-3,
,,,888.000071049E-3,-144.0000087E-3,
,,,890.000045300E-3,-96.000000834E-3,
,,,892.000019550E-3,8.000000380E-3,
,,,894.000053406E-3,120.0000048E-3,
,,,896.000027657E-3,144.0000087E-3,
,,,898.000061512E-3,104.0000021E-3,
,,,900.000035763E-3,0.0,
,,,902.000069618E-3,-104.0000021E-3,
,,,904.000043869E-3,-128.0000061E-3,
,,,906.000018120E-3,-88.000006974E-3,
,,,908.000051975E-3,16.0000008E-3,
,,,910.000026226E-3,112.0000035E-3,
,,,912.000060081E-3,144.0000087E-3,
,,,914.000034332E-3,136.0000074E-3,
,,,916.000068188E-3,40.00000283E-3,
,,,918.000042439E-3,-40.00000283E-3,
,,,920.000016689E-3,-112.0000035E-3,
,,,922.000050545E-3,-112.0000035E-3,
,,,924.000024796E-3,-40.00000283E-3,
,,,926.000058651E-3,72.000004351E-3,
,,,928.000032902E-3,128.0000061E-3,
,,,930.000066757E-3,160.00001132E-3,
,,,932.000041008E-3,72.000004351E-3,
,,,934.000015259E-3,-16.0000008E-3,
,,,936.000049114E-3,-120.0000048E-3,
,,,938.000023365E-3,-136.0000074E-3,
,,,940.000057220E-3,-64.000003040E-3,
,,,942.000031471E-3,24.00000021E-3,
,,,944.000065327E-3,120.0000048E-3,
,,,946.000039577E-3,152.00001001E-3,
,,,948.000073433E-3,104.0000021E-3,
,,,950.000047684E-3,8.000000380E-3,
,,,952.000021935E-3,-96.000000834E-3,
,,,954.000055790E-3,-128.0000061E-3,
,,,956.000030041E-3,-104.0000021E-3,
,,,958.000063896E-3,0.0,
,,,960.000038147E-3,112.0000035E-3,
,,,962.000072002E-3,144.0000087E-3,
,,,964.000046253E-3,120.0000048E-3,
,,,966.000020504E-3,48.00000042E-3,
,,,968.000054359E-3,-48.00000042E-3,
,,,970.000028610E-3,-144.0000087E-3,
,,,972.000062466E-3,-128.0000061E-3,
,,,974.000036716E-3,-48.00000042E-3,
,,,976.000070572E-3,56.000001729E-3,
,,,978.000044823E-3,144.0000087E-3,
,,,980.000019073E-3,144.0000087E-3,
,,,982.000052929E-3,72.000004351E-3,
,,,984.000027180E-3,-32.00000152E-3,
,,,986.000061035E-3,-112.0000035E-3,
,,,988.000035286E-3,-128.0000061E-3,
,,,990.000069141E-3,-64.000003040E-3,
,,,992.000043392E-3,40.00000283E-3,
,,,994.000017643E-3,120.0000048E-3,
,,,996.000051498E-3,152.00001001E-3,
,,,998.000025749E-3,112.0000035E-3,
,,,1.000000,8.000000380E-3,
,,,1.0020001,-96.000000834E-3,
,,,1.0040001,-136.0000074E-3,
,,,1.0060000,-112.0000035E-3,
,,,1.0080000,-24.00000021E-3,
,,,1.0100000,88.000006974E-3,
,,,1.0120001,136.0000074E-3,
,,,1.0140001,136.0000074E-3,
,,,1.0160000,56.000001729E-3,
,,,1.0180000,-64.000003040E-3,
,,,1.0200001,-128.0000061E-3,
,,,1.0220001,-128.0000061E-3,
,,,1.0240000,-56.000001729E-3,
,,,1.0260000,64.000003040E-3,
,,,1.0280000,128.0000061E-3,
,,,1.0300001,144.0000087E-3,
,,,1.0320001,72.000004351E-3,
,,,1.0340000,-32.00000152E-3,
,,,1.0360000,-120.0000048E-3,
,,,1.0380001,-128.0000061E-3,
,,,1.0400001,-72.000004351E-3,
,,,1.0420001,16.0000008E-3,
,,,1.0440000,120.0000048E-3,
,,,1.0460000,144.0000087E-3,
,,,1.0480001,104.0000021E-3,
,,,1.0500001,8.000000380E-3,
,,,1.0520000,-88.000006974E-3,
,,,1.0540000,-128.0000061E-3,
,,,1.0560000,-104.0000021E-3,
,,,1.0580001,-8.000000380E-3,
,,,1.0600001,88.000006974E-3,
,,,1.0620000,152.00001001E-3,
,,,1.0640000,136.0000074E-3,
,,,1.0660001,48.00000042E-3,
,,,1.0680001,-72.000004351E-3,
,,,1.0700001,-128.0000061E-3,
,,,1.0720000,-128.0000061E-3,
,,,1.0740000,-56.000001729E-3,
,,,1.0760001,56.000001729E-3,
,,,1.0780001,144.0000087E-3,
,,,1.0800000,136.0000074E-3,
,,,1.0820000,72.000004351E-3,
,,,1.0840001,-40.00000283E-3,
,,,1.0860001,-104.0000021E-3,
,,,1.0880001,-136.0000074E-3,
,,,1.0900000,-96.000000834E-3,
,,,1.0920000,8.000000380E-3,
,,,1.0940001,120.0000048E-3,
,,,1.0960001,136.0000074E-3,
,,,1.0980000,96.000000834E-3,
,,,1.1000000,-8.000000380E-3,
,,,1.1020000,-104.0000021E-3,
,,,1.1040001,-152.00001001E-3,
,,,1.1060001,-128.0000061E-3,
,,,1.1080000,-24.00000021E-3,
,,,1.1100000,72.000004351E-3,
,,,1.1120001,120.0000048E-3,
,,,1.1140001,112.0000035E-3,
,,,1.1160001,32.00000152E-3,
,,,1.1180000,-80.000005662E-3,
,,,1.1200000,-160.00001132E-3,
,,,1.1220001,-144.0000087E-3,
,,,1.1240001,-64.000003040E-3,
,,,1.1260000,40.00000283E-3,
,,,1.1280000,112.0000035E-3,
,,,1.1300000,128.0000061E-3,
,,,1.1320001,56.000001729E-3,
,,,1.1340001,-40.00000283E-3,
,,,1.1360000,-136.0000074E-3,
,,,1.1380000,-152.00001001E-3,
,,,1.1400001,-104.0000021E-3,
,,,1.1420001,0.0,
,,,1.1440001,104.0000021E-3,
,,,1.1460000,136.0000074E-3,
,,,1.1480000,88.000006974E-3,
,,,1.1500001,-8.000000380E-3,
,,,1.1520001,-128.0000061E-3,
,,,1.1540000,-152.00001001E-3,
,,,1.1560000,-120.0000048E-3,
,,,1.1580001,-16.0000008E-3,
,,,1.1600001,64.000003040E-3,
,,,1.1620001,112.0000035E-3,
,,,1.1640000,112.0000035E-3,
,,,1.1660000,24.00000021E-3,
,,,1.1680001,-80.000005662E-3,
,,,1.1700001,-136.0000074E-3,
,,,1.1720001,-136.0000074E-3,
,,,1.1740000,-56.000001729E-3,
,,,1.1760000,40.00000283E-3,
,,,1.1780001,128.0000061E-3,
,,,1.1800001,128.0000061E-3,
,,,1.1820000,48.00000042E-3,
,,,1.1840000,-40.00000283E-3,
,,,1.1860001,-136.0000074E-3,
,,,1.1880001,-144.0000087E-3,
,,,1.1900001,-80.000005662E-3,
,,,1.1920000,16.0000008E-3,
,,,1.1940000,112.0000035E-3,
,,,1.1960001,136.0000074E-3,
,,,1.1980001,88.000006974E-3,
,,,1.2000000,0.0,
,,,1.2020000,-104.0000021E-3,
,,,1.2040001,-152.00001001E-3,
,,,1.2060001,-120.0000048E-3,
,,,1.2080001,-24.00000021E-3,
,,,1.2100000,80.000005662E-3,
,,,1.2120000,144.0000087E-3,
,,,1.2140001,144.0000087E-3,
,,,1.2160001,32.00000152E-3,
,,,1.2180001,-72.000004351E-3,
,,,1.2200000,-144.0000087E-3,
,,,1.2220000,-144.0000087E-3,
,,,1.2240001,-40.00000283E-3,
,,,1.2260001,48.00000042E-3,
,,,1.2280000,128.0000061E-3,
,,,1.2300000,136.0000074E-3,
,,,1.2320001,80.000005662E-3,
,,,1.2340001,-32.00000152E-3,
,,,1.2360001,-128.0000061E-3,
,,,1.2380000,-136.0000074E-3,
,,,1.2400000,-88.000006974E-3,
,,,1.2420001,32.00000152E-3,
,,,1.2440001,112.0000035E-3,
,,,1.2460001,136.0000074E-3,
,,,1.2480000,96.000000834E-3,
,,,1.2500000,8.000000380E-3,
,,,1.2520001,-112.0000035E-3,
,,,1.2540001,-152.00001001E-3,
,,,1.2560000,-112.0000035E-3,
,,,1.2580000,-24.00000021E-3,
,,,1.2600001,80.000005662E-3,
,,,1.2620001,144.0000087E-3,
,,,1.2640001,128.0000061E-3,
,,,1.2660000,32.00000152E-3,
,,,1.2680000,-72.000004351E-3,
,,,1.2700001,-136.0000074E-3,
,,,1.2720001,-128.0000061E-3,
,,,1.2740000,-40.00000283E-3,
,,,1.2760000,56.000001729E-3,
,,,1.2780001,128.0000061E-3,
,,,1.2800001,144.0000087E-3,
,,,1.2820001,56.000001729E-3,
,,,1.2840000,-32.00000152E-3,
,,,1.2860000,-112.0000035E-3,
,,,1.2880001,-144.0000087E-3,
,,,1.2900001,-96.000000834E-3,
,,,1.2920001,16.0000008E-3,
,,,1.2940000,112.0000035E-3,
,,,1.2960000,144.0000087E-3,
,,,1.2980001,96.000000834E-3,
,,,1.3000001,16.0000008E-3,
,,,1.3020000,-112.0000035E-3,
,,,1.3040000,-152.00001001E-3,
,,,1.3060001,-112.0000035E-3,
,,,1.3080001,-16.0000008E-3,
,,,1.3100001,96.000000834E-3,
,,,1.3120000,136.0000074E-3,
,,,1.3140000,120.0000048E-3,
,,,1.3160001,32.00000152E-3,
,,,1.3180001,-80.000005662E-3,
,,,1.3200001,-128.0000061E-3,
,,,1.3220000,-136.0000074E-3,
,,,1.3240001,-48.00000042E-3,
,,,1.3260001,48.00000042E-3,
,,,1.3280001,136.0000074E-3,
,,,1.3300000,136.0000074E-3,
,,,1.3320000,80.000005662E-3,
,,,1.3340001,-24.00000021E-3,
,,,1.3360001,-128.0000061E-3,
,,,1.3380001,-152.00001001E-3,
,,,1.3400000,-96.000000834E-3,
,,,1.3420000,8.000000380E-3,
,,,1.3440001,128.0000061E-3,
,,,1.3460001,152.00001001E-3,
,,,1.3480000,80.000005662E-3,
,,,1.3500000,-16.0000008E-3,
,,,1.3520001,-112.0000035E-3,
,,,1.3540001,-144.0000087E-3,
,,,1.3560001,-104.0000021E-3,
,,,1.3580000,0.0,
,,,1.3600000,80.000005662E-3,
,,,1.3620001,136.0000074E-3,
,,,1.3640001,112.0000035E-3,
,,,1.3660001,40.00000283E-3,
,,,1.3680000,-64.000003040E-3,
,,,1.3700001,-144.0000087E-3,
,,,1.3720001,-128.0000061E-3,
,,,1.3740001,-56.000001729E-3,
,,,1.3760000,40.00000283E-3,
,,,1.3780000,128.0000061E-3,
,,,1.3800001,144.0000087E-3,
,,,1.3820001,64.000003040E-3,
,,,1.3840001,-40.00000283E-3,
,,,1.3860000,-136.0000074E-3,
,,,1.3880000,-144.0000087E-3,
,,,1.3900001,-80.000005662E-3,
,,,1.3920001,16.0000008E-3,
,,,1.3940001,112.0000035E-3,
,,,1.3960000,136.0000074E-3,
,,,1.3980001,72.000004351E-3,
,,,1.4000001,8.000000380E-3,
,,,1.4020001,-104.0000021E-3,
,,,1.4040000,-144.0000087E-3,
,,,1.4060000,-120.0000048E-3,
,,,1.4080001,-16.0000008E-3,
,,,1.4100001,88.000006974E-3,
,,,1.4120001,136.0000074E-3,
,,,1.4140000,120.0000048E-3,
,,,1.4160000,40.00000283E-3,
,,,1.4180001,-80.000005662E-3,
,,,1.4200001,-136.0000074E-3,
,,,1.4220001,-144.0000087E-3,
,,,1.4240000,-56.000001729E-3,
,,,1.4260001,48.00000042E-3,
,,,1.4280001,120.0000048E-3,
,,,1.4300001,136.0000074E-3,
,,,1.4320000,72.000004351E-3,
,,,1.4340000,-48.00000042E-3,
,,,1.4360001,-136.0000074E-3,
,,,1.4380001,-128.0000061E-3,
,,,1.4400001,-80.000005662E-3,
,,,1.4420000,16.0000008E-3,
,,,1.4440001,112.0000035E-3,
,,,1.4460001,144.0000087E-3,
,,,1.4480001,88.000006974E-3,
,,,1.4500000,8.000000380E-3,
,,,1.4520000,-80.000005662E-3,
,,,1.4540001,-136.0000074E-3,
,,,1.4560001,-112.0000035E-3,
,,,1.4580001,-16.0000008E-3,
,,,1.4600000,96.000000834E-3,
,,,1.4620000,144.0000087E-3,
,,,1.4640001,128.0000061E-3,
,,,1.4660001,32.00000152E-3,
,,,1.4680001,-72.000004351E-3,
,,,1.4700000,-136.0000074E-3,
,,,1.4720001,-128.0000061E-3,
,,,1.4740001,-40.00000283E-3,
,,,1.4760001,48.00000042E-3,
,,,1.4780000,128.0000061E-3,
,,,1.4800000,128.0000061E-3,
,,,1.4820001,48.00000042E-3,
,,,1.4840001,-24.00000021E-3,
,,,1.4860001,-128.0000061E-3,
,,,1.4880000,-144.0000087E-3,
,,,1.4900001,-72.000004351E-3,
,,,1.4920001,24.00000021E-3,
,,,1.4940001,120.0000048E-3,
,,,1.4960001,136.0000074E-3,
,,,1.4980000,104.0000021E-3,
,,,1.5000001,24.00000021E-3,
,,,1.5020001,-104.0000021E-3,
,,,1.5040001,-136.0000074E-3,
,,,1.5060000,-120.0000048E-3,
,,,1.5080000,-24.00000021E-3,
,,,1.5100001,72.000004351E-3,
,,,1.5120001,160.00001132E-3,
,,,1.5140001,136.0000074E-3,
,,,1.5160000,32.00000152E-3,
,,,1.5180001,-80.000005662E-3,
,,,1.5200001,-144.0000087E-3,
,,,1.5220001,-128.0000061E-3,
,,,1.5240000,-32.00000152E-3,
,,,1.5260000,56.000001729E-3,
,,,1.5280001,128.0000061E-3,
,,,1.5300001,128.0000061E-3,
,,,1.5320001,72.000004351E-3,
,,,1.5340000,-40.00000283E-3,
,,,1.5360000,-112.0000035E-3,
,,,1.5380001,-152.00001001E-3,
,,,1.5400001,-80.000005662E-3,
,,,1.5420001,8.000000380E-3,
,,,1.5440000,112.0000035E-3,
,,,1.5460001,144.0000087E-3,
,,,1.5480001,104.0000021E-3,
,,,1.5500001,16.0000008E-3,
,,,1.5520000,-104.0000021E-3,
,,,1.5540000,-136.0000074E-3,
,,,1.5560001,-88.000006974E-3,
,,,1.5580001,-24.00000021E-3,
,,,1.5600001,96.000000834E-3,
,,,1.5620000,152.00001001E-3,
,,,1.5640001,128.0000061E-3,
,,,1.5660001,24.00000021E-3,
,,,1.5680001,-64.000003040E-3,
,,,1.5700001,-120.0000048E-3,
,,,1.5720000,-120.0000048E-3,
,,,1.5740001,-48.00000042E-3,
,,,1.5760001,48.00000042E-3,
,,,1.5780001,144.0000087E-3,
,,,1.5800000,144.0000087E-3,
,,,1.5820000,72.000004351E-3,
,,,1.5840001,-32.00000152E-3,
,,,1.5860001,-144.0000087E-3,
,,,1.5880001,-144.0000087E-3,
,,,1.5900000,-88.000006974E-3,
,,,1.5920001,16.0000008E-3,
,,,1.5940001,112.0000035E-3,
,,,1.5960001,136.0000074E-3,
,,,1.5980000,96.000000834E-3,
,,,1.6000000,8.000000380E-3,
,,,1.6020001,-112.0000035E-3,
,,,1.6040001,-144.0000087E-3,
,,,1.6060001,-112.0000035E-3,
,,,1.6080000,-16.0000008E-3,
,,,1.6100001,72.000004351E-3,
,,,1.6120001,144.0000087E-3,
,,,1.6140001,112.0000035E-3,
,,,1.6160001,40.00000283E-3,
,,,1.6180000,-64.000003040E-3,
,,,1.6200001,-144.0000087E-3,
,,,1.6220001,-144.0000087E-3,
,,,1.6240001,-64.000003040E-3,
,,,1.6260000,48.00000042E-3,
,,,1.6280000,136.0000074E-3,
,,,1.6300001,136.0000074E-3,
,,,1.6320001,64.000003040E-3,
,,,1.6340001,-48.00000042E-3,
,,,1.6360000,-136.0000074E-3,
,,,1.6380001,-160.00001132E-3,
,,,1.6400001,-64.000003040E-3,
,,,1.6420001,16.0000008E-3,
,,,1.6440001,104.0000021E-3,
,,,1.6460000,120.0000048E-3,
,,,1.6480001,96.000000834E-3,
,,,1.6500001,0.0,
,,,1.6520001,-80.000005662E-3,
,,,1.6540000,-128.0000061E-3,
,,,1.6560001,-112.0000035E-3,
,,,1.6580001,-16.0000008E-3,
,,,1.6600001,80.000005662E-3,
,,,1.6620001,144.0000087E-3,
,,,1.6640000,128.0000061E-3,
,,,1.6660001,40.00000283E-3,
,,,1.6680001,-64.000003040E-3,
,,,1.6700001,-144.0000087E-3,
,,,1.6720001,-152.00001001E-3,
,,,1.6740000,-64.000003040E-3,
,,,1.6760001,40.00000283E-3,
,,,1.6780001,128.0000061E-3,
,,,1.6800001,144.0000087E-3,
,,,1.6820000,56.000001729E-3,
,,,1.6840001,-40.00000283E-3,
,,,1.6860001,-128.0000061E-3,
,,,1.6880001,-112.0000035E-3,
,,,1.6900001,-64.000003040E-3,
,,,1.6920000,48.00000042E-3,
,,,1.6940001,136.0000074E-3,
,,,1.6960001,168.00001264E-3,
,,,1.6980001,128.0000061E-3,
,,,1.7000000,48.00000042E-3,
,,,1.7020000,-32.00000152E-3,
,,,1.7040001,-72.000004351E-3,
,,,1.7060001,-32.00000152E-3,
,,,1.7080001,72.000004351E-3,
,,,1.7100000,184.00001526E-3,
,,,1.7120001,248.00001085E-3,
,,,1.7140001,224.00000691E-3,
,,,1.7160001,120.0000048E-3,
,,,1.7180001,-40.00000283E-3,
,,,1.7200000,-136.0000074E-3,
,,,1.7220001,-192.00000167E-3,
,,,1.7240001,-112.0000035E-3,
,,,1.7260001,-40.00000283E-3,
,,,1.7280000,40.00000283E-3,
,,,1.7300001,32.00000152E-3,
,,,1.7320001,-40.00000283E-3,
,,,1.7340001,-128.0000061E-3,
,,,1.7360001,-216.00000560E-3,
,,,1.7380000,-216.00000560E-3,
,,,1.7400001,-144.0000087E-3,
,,,1.7420001,-56.000001729E-3,
,,,1.7440001,48.00000042E-3,
,,,1.7460001,80.000005662E-3,
,,,1.7480000,56.000001729E-3,
,,,1.7500001,-24.00000021E-3,
,,,1.7520001,-104.0000021E-3,
,,,1.7540001,-152.00001001E-3,
,,,1.7560000,-120.0000048E-3,
,,,1.7580001,-32.00000152E-3,
,,,1.7600001,88.000006974E-3,
,,,1.7620001,136.0000074E-3,
,,,1.7640001,144.0000087E-3,
,,,1.7660000,48.00000042E-3,
,,,1.7680001,-56.000001729E-3,
,,,1.7700001,-136.0000074E-3,
,,,1.7720001,-104.0000021E-3,
,,,1.7740000,-32.00000152E-3,
,,,1.7760001,72.000004351E-3,
,,,1.7780001,144.0000087E-3,
,,,1.7800001,144.0000087E-3,
,,,1.7820001,72.000004351E-3,
,,,1.7840000,-16.0000008E-3,
,,,1.7860001,-120.0000048E-3,
,,,1.7880001,-128.0000061E-3,
,,,1.7900001,-72.000004351E-3,
,,,1.7920001,32.00000152E-3,
,,,1.7940000,112.0000035E-3,
,,,1.7960001,144.0000087E-3,
,,,1.7980001,112.0000035E-3,
,,,1.8000001,16.0000008E-3,
,,,1.8020000,-104.0000021E-3,
,,,1.8040001,-136.0000074E-3,
,,,1.8060001,-112.0000035E-3,
,,,1.8080001,-8.000000380E-3,
,,,1.8100001,96.000000834E-3,
,,,1.8120000,160.00001132E-3,
,,,1.8140001,136.0000074E-3,
,,,1.8160001,40.00000283E-3,
,,,1.8180001,-64.000003040E-3,
,,,1.8200001,-128.0000061E-3,
,,,1.8220001,-120.0000048E-3,
,,,1.8240001,-40.00000283E-3,
,,,1.8260001,48.00000042E-3,
,,,1.8280001,128.0000061E-3,
,,,1.8300000,128.0000061E-3,
,,,1.8320001,64.000003040E-3,
,,,1.8340001,-32.00000152E-3,
,,,1.8360001,-112.0000035E-3,
,,,1.8380001,-136.0000074E-3,
,,,1.8400000,-64.000003040E-3,
,,,1.8420001,8.000000380E-3,
,,,1.8440001,120.0000048E-3,
,,,1.8460001,152.00001001E-3,
,,,1.8480000,112.0000035E-3,
,,,1.8500001,8.000000380E-3,
,,,1.8520001,-96.000000834E-3,
,,,1.8540001,-144.0000087E-3,
,,,1.8560001,-112.0000035E-3,
,,,1.8580000,0.0,
,,,1.8600001,104.0000021E-3,
,,,1.8620001,144.0000087E-3,
,,,1.8640001,128.0000061E-3,
,,,1.8660001,32.00000152E-3,
,,,1.8680000,-56.000001729E-3,
,,,1.8700001,-136.0000074E-3,
,,,1.8720001,-120.0000048E-3,
,,,1.8740001,-56.000001729E-3,
,,,1.8760000,72.000004351E-3,
,,,1.8780001,144.0000087E-3,
,,,1.8800001,144.0000087E-3,
,,,1.8820001,80.000005662E-3,
,,,1.8840001,-24.00000021E-3,
,,,1.8860000,-128.0000061E-3,
,,,1.8880001,-136.0000074E-3,
,,,1.8900001,-80.000005662E-3,
,,,1.8920001,8.000000380E-3,
,,,1.8940001,120.0000048E-3,
,,,1.8960001,160.00001132E-3,
,,,1.8980001,112.0000035E-3,
,,,1.9000001,8.000000380E-3,
,,,1.9020001,-96.000000834E-3,
,,,1.9040000,-112.0000035E-3,
,,,1.9060001,-104.0000021E-3,
,,,1.9080001,0.0,
,,,1.9100001,88.000006974E-3,
,,,1.9120001,128.0000061E-3,
,,,1.9140000,136.0000074E-3,
,,,1.9160001,64.000003040E-3,
,,,1.9180001,-56.000001729E-3,
,,,1.9200001,-128.0000061E-3,
,,,1.9220001,-128.0000061E-3,
,,,1.9240001,-40.00000283E-3,
,,,1.9260001,56.000001729E-3,
,,,1.9280001,144.0000087E-3,
,,,1.9300001,152.00001001E-3,
,,,1.9320000,80.000005662E-3,
,,,1.9340001,-8.000000380E-3,
,,,1.9360001,-112.0000035E-3,
,,,1.9380001,-128.0000061E-3,
,,,1.9400001,-64.000003040E-3,
,,,1.9420002,24.00000021E-3,
,,,1.9440001,120.0000048E-3,
,,,1.9460001,136.0000074E-3,
,,,1.9480001,112.0000035E-3,
,,,1.9500000,8.000000380E-3,
,,,1.9520001,-96.000000834E-3,
,,,1.9540001,-120.0000048E-3,
,,,1.9560001,-104.0000021E-3,
,,,1.9580001,-16.0000008E-3,
,,,1.9600000,96.000000834E-3,
,,,1.9620001,136.0000074E-3,
,,,1.9640001,144.0000087E-3,
,,,1.9660001,32.00000152E-3,
,,,1.9680001,-72.000004351E-3,
,,,1.9700001,-128.0000061E-3,
,,,1.9720001,-136.0000074E-3,
,,,1.9740001,-64.000003040E-3,
,,,1.9760001,56.000001729E-3,
,,,1.9780000,120.0000048E-3,
,,,1.9800001,128.0000061E-3,
,,,1.9820001,56.000001729E-3,
,,,1.9840001,-48.00000042E-3,
,,,1.9860001,-144.0000087E-3,
,,,1.9880000,-160.00001132E-3,
,,,1.9900001,-96.000000834E-3,
,,,1.9920001,0.0,
,,,1.9940001,96.000000834E-3,
,,,1.9960001,120.0000048E-3,
,,,1.9980001,88.000006974E-3,
,,,2.0000000,-24.00000021E-3,
,,,2.0020001,-128.0000061E-3,
,,,2.0040002,-160.00001132E-3,
,,,2.0060000,-128.0000061E-3,
,,,2.0080001,-32.00000152E-3,
,,,2.0100000,80.000005662E-3,
,,,2.0120001,112.0000035E-3,
,,,2.0140002,112.0000035E-3,
,,,2.0160000,16.0000008E-3,
,,,2.0180001,-104.0000021E-3,
,,,2.0200000,-144.0000087E-3,
,,,2.0220001,-152.00001001E-3,
,,,2.0240002,-72.000004351E-3,
,,,2.0260000,40.00000283E-3,
,,,2.0280001,128.0000061E-3,
,,,2.0300002,120.0000048E-3,
,,,2.0320001,48.00000042E-3,
,,,2.0340002,-32.00000152E-3,
,,,2.0360000,-120.0000048E-3,
,,,2.0380001,-160.00001132E-3,
,,,2.0400002,-88.000006974E-3,
,,,2.0420001,8.000000380E-3,
,,,2.0440001,112.0000035E-3,
,,,2.0460000,136.0000074E-3,
,,,2.0480001,112.0000035E-3,
,,,2.0500002,-8.000000380E-3,
,,,2.0520000,-112.0000035E-3,
,,,2.0540001,-128.0000061E-3,
,,,2.0560000,-104.0000021E-3,
,,,2.0580001,-16.0000008E-3,
,,,2.0600002,88.000006974E-3,
,,,2.0620000,128.0000061E-3,
,,,2.0640001,120.0000048E-3,
,,,2.0660000,32.00000152E-3,
,,,2.0680001,-72.000004351E-3,
,,,2.0700002,-144.0000087E-3,
,,,2.0720000,-144.0000087E-3,
,,,2.0740001,-64.000003040E-3,
,,,2.0760002,40.00000283E-3,
,,,2.0780001,128.0000061E-3,
,,,2.0800002,136.0000074E-3,
,,,2.0820000,64.000003040E-3,
,,,2.0840001,-40.00000283E-3,
,,,2.0860002,-144.0000087E-3,
,,,2.0880001,-144.0000087E-3,
,,,2.0900002,-64.000003040E-3,
,,,2.0920000,24.00000021E-3,
,,,2.0940001,120.0000048E-3,
,,,2.0960002,136.0000074E-3,
,,,2.0980000,96.000000834E-3,
,,,2.1000001,0.0,
,,,2.1020000,-104.0000021E-3,
,,,2.1040001,-144.0000087E-3,
,,,2.1060002,-112.0000035E-3,
,,,2.1080000,-24.00000021E-3,
,,,2.1100001,96.000000834E-3,
,,,2.1120000,144.0000087E-3,
,,,2.1140001,136.0000074E-3,
,,,2.1160002,40.00000283E-3,
,,,2.1180000,-80.000005662E-3,
,,,2.1200001,-160.00001132E-3,
,,,2.1220002,-128.0000061E-3,
,,,2.1240001,-40.00000283E-3,
,,,2.1260002,72.000004351E-3,
,,,2.1280000,120.0000048E-3,
,,,2.1300001,136.0000074E-3,
,,,2.1320002,48.00000042E-3,
,,,2.1340001,-32.00000152E-3,
,,,2.1360002,-136.0000074E-3,
,,,2.1380000,-144.0000087E-3,
,,,2.1400001,-88.000006974E-3,
,,,2.1420002,16.0000008E-3,
,,,2.1440001,112.0000035E-3,
,,,2.1460001,144.0000087E-3,
,,,2.1480000,112.0000035E-3,
,,,2.1500001,16.0000008E-3,
,,,2.1520002,-104.0000021E-3,
,,,2.1540000,-144.0000087E-3,
,,,2.1560001,-128.0000061E-3,
,,,2.1580000,-32.00000152E-3,
,,,2.1600001,80.000005662E-3,
,,,2.1620002,160.00001132E-3,
,,,2.1640000,112.0000035E-3,
,,,2.1660001,32.00000152E-3,
,,,2.1680002,-80.000005662E-3,
,,,2.1700001,-128.0000061E-3,
,,,2.1720002,-136.0000074E-3,
,,,2.1740000,-24.00000021E-3,
,,,2.1760001,48.00000042E-3,
,,,2.1780002,120.0000048E-3,
,,,2.1800001,136.0000074E-3,
,,,2.1820002,64.000003040E-3,
,,,2.1840000,-32.00000152E-3,
,,,2.1860001,-112.0000035E-3,
,,,2.1880002,-144.0000087E-3,
,,,2.1900001,-80.000005662E-3,
,,,2.1920002,0.0,
,,,2.1940000,112.0000035E-3,
,,,2.1960001,136.0000074E-3,
,,,2.1980002,112.0000035E-3,
,,,2.2000000,-8.000000380E-3,
,,,2.2020001,-112.0000035E-3,
,,,2.2040000,-128.0000061E-3,
,,,2.2060001,-104.0000021E-3,
,,,2.2080002,-16.0000008E-3,
,,,2.2100000,96.000000834E-3,
,,,2.2120001,136.0000074E-3,
,,,2.2140000,112.0000035E-3,
,,,2.2160001,32.00000152E-3,
,,,2.2180002,-64.000003040E-3,
,,,2.2200000,-128.0000061E-3,
,,,2.2220001,-128.0000061E-3,
,,,2.2240002,-48.00000042E-3,
,,,2.2260001,48.00000042E-3,
,,,2.2280002,120.0000048E-3,
,,,2.2300000,144.0000087E-3,
,,,2.2320001,56.000001729E-3,
,,,2.2340002,-24.00000021E-3,
,,,2.2360001,-128.0000061E-3,
,,,2.2380002,-152.00001001E-3,
,,,2.2400000,-88.000006974E-3,
,,,2.2420001,24.00000021E-3,
,,,2.2440002,112.0000035E-3,
,,,2.2460001,152.00001001E-3,
,,,2.2480001,96.000000834E-3,
,,,2.2500000,8.000000380E-3,
,,,2.2520001,-104.0000021E-3,
,,,2.2540002,-136.0000074E-3,
,,,2.2560000,-104.0000021E-3,
,,,2.2580001,-16.0000008E-3,
,,,2.2600000,72.000004351E-3,
,,,2.2620001,136.0000074E-3,
,,,2.2640002,120.0000048E-3,
,,,2.2660000,32.00000152E-3,
,,,2.2680001,-72.000004351E-3,
,,,2.2700002,-152.00001001E-3,
,,,2.2720001,-128.0000061E-3,
,,,2.2740002,-56.000001729E-3,
,,,2.2760000,48.00000042E-3,
,,,2.2780001,136.0000074E-3,
,,,2.2800002,136.0000074E-3,
,,,2.2820001,88.000006974E-3,
,,,2.2840002,-48.00000042E-3,
,,,2.2860000,-136.0000074E-3,
,,,2.2880001,-144.0000087E-3,
,,,2.2900002,-56.000001729E-3,
,,,2.2920001,8.000000380E-3,
,,,2.2940001,120.0000048E-3,
,,,2.2960000,120.0000048E-3,
,,,2.2980001,80.000005662E-3,
,,,2.3000002,-8.000000380E-3,
,,,2.3020000,-88.000006974E-3,
,,,2.3040001,-128.0000061E-3,
,,,2.3060000,-112.0000035E-3,
,,,2.3080001,-24.00000021E-3,
,,,2.3100002,104.0000021E-3,
,,,2.3120000,144.0000087E-3,
,,,2.3140001,144.0000087E-3,
,,,2.3160002,32.00000152E-3,
,,,2.3180001,-72.000004351E-3,
,,,2.3200002,-136.0000074E-3,
,,,2.3220000,-136.0000074E-3,
,,,2.3240001,-64.000003040E-3,
,,,2.3260002,72.000004351E-3,
,,,2.3280001,128.0000061E-3,
,,,2.3300002,136.0000074E-3,
,,,2.3320000,56.000001729E-3,
,,,2.3340001,-32.00000152E-3,
,,,2.3360002,-128.0000061E-3,
,,,2.3380001,-144.0000087E-3,
,,,2.3400002,-80.000005662E-3,
,,,2.3420000,16.0000008E-3,
,,,2.3440001,112.0000035E-3,
,,,2.3460002,128.0000061E-3,
,,,2.3480000,96.000000834E-3,
,,,2.3500001,16.0000008E-3,
,,,2.3520000,-104.0000021E-3,
,,,2.3540001,-136.0000074E-3,
,,,2.3560002,-112.0000035E-3,
,,,2.3580000,-24.00000021E-3,
,,,2.3600001,80.000005662E-3,
,,,2.3620002,128.0000061E-3,
,,,2.3640001,128.0000061E-3,
,,,2.3660002,32.00000152E-3,
,,,2.3680000,-64.000003040E-3,
,,,2.3700001,-136.0000074E-3,
,,,2.3720002,-128.0000061E-3,
,,,2.3740001,-48.00000042E-3,
,,,2.3760002,48.00000042E-3,
,,,2.3780000,144.0000087E-3,
,,,2.3800001,136.0000074E-3,
,,,2.3820002,72.000004351E-3,
,,,2.3840001,-40.00000283E-3,
,,,2.3860002,-128.0000061E-3,
,,,2.3880000,-120.0000048E-3,
,,,2.3900001,-64.000003040E-3,
,,,2.3920002,32.00000152E-3,
,,,2.3940001,128.0000061E-3,
,,,2.3960001,136.0000074E-3,
,,,2.3980000,104.0000021E-3,
,,,2.4000001,16.0000008E-3,
,,,2.4020002,-88.000006974E-3,
,,,2.4040000,-144.0000087E-3,
,,,2.4060001,-104.0000021E-3,
,,,2.4080002,-24.00000021E-3,
,,,2.4100001,88.000006974E-3,
,,,2.4120002,136.0000074E-3,
,,,2.4140000,144.0000087E-3,
,,,2.4160001,32.00000152E-3,
,,,2.4180002,-72.000004351E-3,
,,,2.4200001,-152.00001001E-3,
,,,2.4220002,-136.0000074E-3,
,,,2.4240000,-48.00000042E-3,
,,,2.4260001,64.000003040E-3,
,,,2.4280002,136.0000074E-3,
,,,2.4300001,136.0000074E-3,
,,,2.4320002,56.000001729E-3,
,,,2.4340000,-24.00000021E-3,
,,,2.4360001,-120.0000048E-3,
,,,2.4380002,-112.0000035E-3,
,,,2.4400001,-72.000004351E-3,
,,,2.4420002,24.00000021E-3,
,,,2.4440000,112.0000035E-3,
,,,2.4460001,144.0000087E-3,
,,,2.4480002,112.0000035E-3,
,,,2.4500000,24.00000021E-3,
,,,2.4520001,-96.000000834E-3,
,,,2.4540002,-136.0000074E-3,
,,,2.4560001,-136.0000074E-3,
,,,2.4580002,-32.00000152E-3,
,,,2.4600000,80.000005662E-3,
,,,2.4620001,144.0000087E-3,
,,,2.4640002,128.0000061E-3,
,,,2.4660001,32.00000152E-3,
,,,2.4680002,-88.000006974E-3,
,,,2.4700000,-144.0000087E-3,
,,,2.4720001,-136.0000074E-3,
,,,2.4740002,-40.00000283E-3,
,,,2.4760001,56.000001729E-3,
,,,2.4780002,128.0000061E-3,
,,,2.4800000,128.0000061E-3,
,,,2.4820001,64.000003040E-3,
,,,2.4840002,-32.00000152E-3,
,,,2.4860001,-120.0000048E-3,
,,,2.4880002,-144.0000087E-3,
,,,2.4900000,-88.000006974E-3,
,,,2.4920001,8.000000380E-3,
,,,2.4940002,96.000000834E-3,
,,,2.4960001,144.0000087E-3,
,,,2.4980001,104.0000021E-3,
,,,2.5000000,0.0,
,,,2.5020001,-120.0000048E-3,
,,,2.5040002,-152.00001001E-3,
,,,2.5060000,-120.0000048E-3,
,,,2.5080001,-24.00000021E-3,
,,,2.5100002,96.000000834E-3,
,,,2.5120001,144.0000087E-3,
,,,2.5140002,112.0000035E-3,
,,,2.5160000,24.00000021E-3,
,,,2.5180001,-80.000005662E-3,
,,,2.5200002,-128.0000061E-3,
,,,2.5220001,-128.0000061E-3,
,,,2.5240002,-56.000001729E-3,
,,,2.5260000,48.00000042E-3,
,,,2.5280001,120.0000048E-3,
,,,2.5300002,144.0000087E-3,
,,,2.5320001,80.000005662E-3,
,,,2.5340002,-24.00000021E-3,
,,,2.5360000,-128.0000061E-3,
,,,2.5380001,-152.00001001E-3,
,,,2.5400002,-96.000000834E-3,
,,,2.5420001,8.000000380E-3,
,,,2.5440001,128.0000061E-3,
,,,2.5460000,152.00001001E-3,
,,,2.5480001,96.000000834E-3,
,,,2.5500002,0.0,
,,,2.5520000,-104.0000021E-3,
,,,2.5540001,-128.0000061E-3,
,,,2.5560002,-112.0000035E-3,
,,,2.5580001,8.000000380E-3,
,,,2.5600002,88.000006974E-3,
,,,2.5620000,160.00001132E-3,
,,,2.5640001,136.0000074E-3,
,,,2.5660002,72.000004351E-3,
,,,2.5680001,-32.00000152E-3,
,,,2.5700002,-96.000000834E-3,
,,,2.5720000,-80.000005662E-3,
,,,2.5740001,0.0,
,,,2.5760002,120.0000048E-3,
,,,2.5780001,216.00000560E-3,
,,,2.5800002,240.00000954E-3,
,,,2.5820000,176.00001395E-3,
,,,2.5840001,56.000001729E-3,
,,,2.5860002,-40.00000283E-3,
,,,2.5880001,-88.000006974E-3,
,,,2.5900002,-40.00000283E-3,
,,,2.5920000,-16.0000008E-3,
,,,2.5940001,48.00000042E-3,
,,,2.5960002,48.00000042E-3,
,,,2.5980000,-8.000000380E-3,
,,,2.6000001,-96.000000834E-3,
,,,2.6020002,-208.00000429E-3,
,,,2.6040001,-224.00000691E-3,
,,,2.6060002,-200.00000298E-3,
,,,2.6080000,-112.0000035E-3,
,,,2.6100001,8.000000380E-3,
,,,2.6120002,72.000004351E-3,
,,,2.6140001,56.000001729E-3,
,,,2.6160002,-16.0000008E-3,
,,,2.6180000,-104.0000021E-3,
,,,2.6200001,-168.00001264E-3,
,,,2.6220002,-160.00001132E-3,
,,,2.6240001,-56.000001729E-3,
,,,2.6260002,64.000003040E-3,
,,,2.6280000,128.0000061E-3,
,,,2.6300001,136.0000074E-3,
,,,2.6320002,72.000004351E-3,
,,,2.6340001,-32.00000152E-3,
,,,2.6360002,-120.0000048E-3,
,,,2.6380000,-120.0000048E-3,
,,,2.6400001,-72.000004351E-3,
,,,2.6420002,32.00000152E-3,
,,,2.6440001,128.0000061E-3,
,,,2.6460001,152.00001001E-3,
,,,2.6480002,120.0000048E-3,
,,,2.6500001,24.00000021E-3,
,,,2.6520002,-88.000006974E-3,
,,,2.6540000,-144.0000087E-3,
,,,2.6560001,-104.0000021E-3,
,,,2.6580002,0.0,
,,,2.6600001,104.0000021E-3,
,,,2.6620002,152.00001001E-3,
,,,2.6640000,128.0000061E-3,
,,,2.6660001,48.00000042E-3,
,,,2.6680002,-72.000004351E-3,
,,,2.6700001,-128.0000061E-3,
,,,2.6720002,-120.0000048E-3,
,,,2.6740000,-48.00000042E-3,
,,,2.6760001,72.000004351E-3,
,,,2.6780002,144.0000087E-3,
,,,2.6800001,144.0000087E-3,
,,,2.6820002,64.000003040E-3,
,,,2.6840000,-24.00000021E-3,
,,,2.6860001,-104.0000021E-3,
,,,2.6880002,-144.0000087E-3,
,,,2.6900001,-72.000004351E-3,
,,,2.6920002,16.0000008E-3,
,,,2.6940002,112.0000035E-3,
,,,2.6960001,144.0000087E-3,
,,,2.6980002,112.0000035E-3,
,,,2.7000000,24.00000021E-3,
,,,2.7020001,-104.0000021E-3,
,,,2.7040002,-120.0000048E-3,
,,,2.7060001,-104.0000021E-3,
,,,2.7080002,-8.000000380E-3,
,,,2.7100000,96.000000834E-3,
,,,2.7120001,136.0000074E-3,
,,,2.7140002,120.0000048E-3,
,,,2.7160001,32.00000152E-3,
,,,2.7180002,-72.000004351E-3,
,,,2.72000003,-136.0000074E-3,
,,,2.72200012,-128.0000061E-3,
,,,2.72400022,-48.00000042E-3,
,,,2.72600007,48.00000042E-3,
,,,2.72800016,136.0000074E-3,
,,,2.73000002,144.0000087E-3,
,,,2.73200011,64.000003040E-3,
,,,2.73400021,-32.00000152E-3,
,,,2.73600006,-120.0000048E-3,
,,,2.73800015,-128.0000061E-3,
,,,2.74000025,-96.000000834E-3,
,,,2.74200010,8.000000380E-3,
,,,2.74400020,112.0000035E-3,
,,,2.74600005,152.00001001E-3,
,,,2.74800014,112.0000035E-3,
,,,2.75000024,8.000000380E-3,
,,,2.75200009,-104.0000021E-3,
,,,2.75400019,-128.0000061E-3,
,,,2.75600004,-104.0000021E-3,
,,,2.75800014,0.0,
,,,2.76000023,88.000006974E-3,
,,,2.76200008,144.0000087E-3,
,,,2.76400018,128.0000061E-3,
,,,2.76600003,40.00000283E-3,
,,,2.76800013,-64.000003040E-3,
,,,2.77000022,-128.0000061E-3,
,,,2.77200007,-120.0000048E-3,
,,,2.77400017,-40.00000283E-3,
,,,2.77600002,56.000001729E-3,
,,,2.77800012,144.0000087E-3,
,,,2.78000021,152.00001001E-3,
,,,2.78200006,80.000005662E-3,
,,,2.78400016,-24.00000021E-3,
,,,2.78600001,-112.0000035E-3,
,,,2.78800011,-120.0000048E-3,
,,,2.79000020,-64.000003040E-3,
,,,2.79200006,24.00000021E-3,
,,,2.79400015,120.0000048E-3,
,,,2.79600024,160.00001132E-3,
,,,2.79800010,104.0000021E-3,
,,,2.80000019,8.000000380E-3,
,,,2.80200005,-104.0000021E-3,
,,,2.80400014,-136.0000074E-3,
,,,2.80600023,-96.000000834E-3,
,,,2.80800009,8.000000380E-3,
,,,2.81000018,104.0000021E-3,
,,,2.81200004,160.00001132E-3,
,,,2.81400013,128.0000061E-3,
,,,2.81600022,56.000001729E-3,
,,,2.81800008,-64.000003040E-3,
,,,2.82000017,-136.0000074E-3,
,,,2.82200003,-136.0000074E-3,
,,,2.82400012,-48.00000042E-3,
,,,2.82600021,48.00000042E-3,
,,,2.82800007,144.0000087E-3,
,,,2.83000016,144.0000087E-3,
,,,2.83200002,80.000005662E-3,
,,,2.83400011,-40.00000283E-3,
,,,2.83600020,-128.0000061E-3,
,,,2.83800006,-128.0000061E-3,
,,,2.84000015,-80.000005662E-3,
,,,2.84200025,24.00000021E-3,
,,,2.84400010,104.0000021E-3,
,,,2.84600019,128.0000061E-3,
,,,2.84800005,88.000006974E-3,
,,,2.85000014,-8.000000380E-3,
,,,2.85200024,-120.0000048E-3,
,,,2.85400009,-144.0000087E-3,
,,,2.85600019,-112.0000035E-3,
,,,2.85800004,-24.00000021E-3,
,,,2.86000013,72.000004351E-3,
,,,2.86200023,128.0000061E-3,
,,,2.86400008,112.0000035E-3,
,,,2.86600018,40.00000283E-3,
,,,2.86800003,-88.000006974E-3,
,,,2.87000012,-152.00001001E-3,
,,,2.87200022,-144.0000087E-3,
,,,2.87400007,-64.000003040E-3,
,,,2.87600017,48.00000042E-3,
,,,2.87800002,128.0000061E-3,
,,,2.88000011,120.0000048E-3,
,,,2.88200021,48.00000042E-3,
,,,2.88400006,-32.00000152E-3,
,,,2.88600016,-128.0000061E-3,
,,,2.88800025,-160.00001132E-3,
,,,2.89000010,-104.0000021E-3,
,,,2.89200020,8.000000380E-3,
,,,2.89400005,96.000000834E-3,
,,,2.89600015,136.0000074E-3,
,,,2.89800024,88.000006974E-3,
,,,2.90000010,-8.000000380E-3,
,,,2.90200019,-120.0000048E-3,
,,,2.90400004,-160.00001132E-3,
,,,2.90600014,-136.0000074E-3,
,,,2.90800023,-24.00000021E-3,
,,,2.91000009,88.000006974E-3,
,,,2.91200018,136.0000074E-3,
,,,2.91400003,104.0000021E-3,
,,,2.91600013,40.00000283E-3,
,,,2.91800022,-80.000005662E-3,
,,,2.92000008,-152.00001001E-3,
,,,2.92200017,-144.0000087E-3,
,,,2.92400002,-48.00000042E-3,
,,,2.92600012,40.00000283E-3,
,,,2.92800021,120.0000048E-3,
,,,2.93000007,136.0000074E-3,
,,,2.93200016,72.000004351E-3,
,,,2.93400025,-32.00000152E-3,
,,,2.93600011,-136.0000074E-3,
,,,2.93800020,-160.00001132E-3,
,,,2.94000006,-88.000006974E-3,
,,,2.94200015,24.00000021E-3,
,,,2.94400024,112.0000035E-3,
,,,2.94600010,136.0000074E-3,
,,,2.94800019,96.000000834E-3,
,,,2.95000005,-32.00000152E-3,
,,,2.95200014,-112.0000035E-3,
,,,2.95400023,-128.0000061E-3,
,,,2.95600009,-104.0000021E-3,
,,,2.95800018,-16.0000008E-3,
,,,2.96000004,88.000006974E-3,
,,,2.96200013,128.0000061E-3,
,,,2.96400023,112.0000035E-3,
,,,2.96600008,40.00000283E-3,
,,,2.96800017,-64.000003040E-3,
,,,2.97000003,-136.0000074E-3,
,,,2.97200012,-144.0000087E-3,
,,,2.97400022,-56.000001729E-3,
,,,2.97600007,56.000001729E-3,
,,,2.97800016,128.0000061E-3,
,,,2.98000026,144.0000087E-3,
,,,2.98200011,56.000001729E-3,
,,,2.98400021,-48.00000042E-3,
,,,2.98600006,-136.0000074E-3,
,,,2.98800015,-144.0000087E-3,
,,,2.99000025,-80.000005662E-3,
,,,2.99200010,24.00000021E-3,
,,,2.99400020,112.0000035E-3,
,,,2.99600005,136.0000074E-3,
,,,2.99800014,80.000005662E-3,
,,,3.00000024,0.0,
,,,3.00200009,-104.0000021E-3,
,,,3.00400019,-144.0000087E-3,
,,,3.00600004,-104.0000021E-3,
,,,3.00800014,-16.0000008E-3,
,,,3.01000023,72.000004351E-3,
,,,3.01200008,136.0000074E-3,
,,,3.01400018,128.0000061E-3,
,,,3.01600003,40.00000283E-3,
,,,3.01800013,-72.000004351E-3,
,,,3.02000022,-152.00001001E-3,
,,,3.02200007,-136.0000074E-3,
,,,3.02400017,-56.000001729E-3,
,,,3.02600026,64.000003040E-3,
,,,3.02800012,152.00001001E-3,
,,,3.03000021,128.0000061E-3,
,,,3.03200006,56.000001729E-3,
,,,3.03400016,-40.00000283E-3,
,,,3.03600025,-120.0000048E-3,
,,,3.03800011,-144.0000087E-3,
,,,3.04000020,-56.000001729E-3,
,,,3.04200006,16.0000008E-3,
,,,3.04400015,128.0000061E-3,
,,,3.04600024,128.0000061E-3,
,,,3.04800010,96.000000834E-3,
,,,3.05000019,0.0,
,,,3.05200005,-104.0000021E-3,
,,,3.05400014,-152.00001001E-3,
,,,3.05600023,-112.0000035E-3,
,,,3.05800009,-16.0000008E-3,
,,,3.06000018,88.000006974E-3,
,,,3.06200004,144.0000087E-3,
,,,3.06400013,136.0000074E-3,
,,,3.06600022,32.00000152E-3,
,,,3.06800008,-56.000001729E-3,
,,,3.07000017,-152.00001001E-3,
,,,3.07200003,-112.0000035E-3,
,,,3.07400012,-40.00000283E-3,
,,,3.07600021,56.000001729E-3,
,,,3.07800007,144.0000087E-3,
,,,3.08000016,120.0000048E-3,
,,,3.08200026,56.000001729E-3,
,,,3.08400011,-40.00000283E-3,
,,,3.08600020,-136.0000074E-3,
,,,3.08800006,-144.0000087E-3,
,,,3.09000015,-88.000006974E-3,
,,,3.09200025,8.000000380E-3,
,,,3.09400010,104.0000021E-3,
,,,3.09600019,152.00001001E-3,
,,,3.09800005,96.000000834E-3,
,,,3.10000014,8.000000380E-3,
,,,3.10200024,-112.0000035E-3,
,,,3.10400009,-144.0000087E-3,
,,,3.10600019,-96.000000834E-3,
,,,3.10800004,-16.0000008E-3,
,,,3.11000013,88.000006974E-3,
,,,3.11200023,144.0000087E-3,
,,,3.11400008,128.0000061E-3,
,,,3.11600018,40.00000283E-3,
,,,3.11800003,-96.000000834E-3,
,,,3.12000012,-136.0000074E-3,
,,,3.12200022,-144.0000087E-3,
,,,3.12400007,-48.00000042E-3,
,,,3.12600017,56.000001729E-3,
,,,3.12800026,128.0000061E-3,
,,,3.13000011,136.0000074E-3,
,,,3.13200021,72.000004351E-3,
,,,3.13400006,-32.00000152E-3,
,,,3.13600016,-128.0000061E-3,
,,,3.13800025,-144.0000087E-3,
,,,3.14000010,-64.000003040E-3,
,,,3.14200020,8.000000380E-3,
,,,3.14400005,128.0000061E-3,
,,,3.14600015,152.00001001E-3,
,,,3.14800024,88.000006974E-3,
,,,3.15000010,-16.0000008E-3,
,,,3.15200019,-128.0000061E-3,
,,,3.15400004,-152.00001001E-3,
,,,3.15600014,-112.0000035E-3,
,,,3.15800023,-16.0000008E-3,
,,,3.16000009,88.000006974E-3,
,,,3.16200018,136.0000074E-3,
,,,3.16400003,128.0000061E-3,
,,,3.16600013,24.00000021E-3,
,,,3.16800022,-72.000004351E-3,
,,,3.17000008,-144.0000087E-3,
,,,3.17200017,-136.0000074E-3,
,,,3.17400026,-40.00000283E-3,
,,,3.17600012,48.00000042E-3,
,,,3.17800021,128.0000061E-3,
,,,3.18000007,136.0000074E-3,
,,,3.18200016,64.000003040E-3,
,,,3.18400025,-40.00000283E-3,
,,,3.18600011,-144.0000087E-3,
,,,3.18800020,-152.00001001E-3,
,,,3.19000006,-72.000004351E-3,
,,,3.19200015,16.0000008E-3,
,,,3.19400024,112.0000035E-3,
,,,3.19600010,144.0000087E-3,
,,,3.19800019,88.000006974E-3,
,,,3.20000005,8.000000380E-3,
,,,3.20200014,-104.0000021E-3,
,,,3.20400023,-144.0000087E-3,
,,,3.20600009,-104.0000021E-3,
,,,3.20800018,-16.0000008E-3,
,,,3.21000004,80.000005662E-3,
,,,3.21200013,128.0000061E-3,
,,,3.21400023,112.0000035E-3,
,,,3.21600008,40.00000283E-3,
,,,3.21800017,-72.000004351E-3,
,,,3.22000027,-136.0000074E-3,
,,,3.22200012,-152.00001001E-3,
,,,3.22400022,-32.00000152E-3,
,,,3.22600007,40.00000283E-3,
,,,3.22800016,144.0000087E-3,
,,,3.23000026,144.0000087E-3,
,,,3.23200011,64.000003040E-3,
,,,3.23400021,-48.00000042E-3,
,,,3.23600006,-144.0000087E-3,
,,,3.23800015,-128.0000061E-3,
,,,3.24000025,-64.000003040E-3,
,,,3.24200010,24.00000021E-3,
,,,3.24400020,128.0000061E-3,
,,,3.24600005,144.0000087E-3,
,,,3.24800014,96.000000834E-3,
,,,3.25000024,0.0,
,,,3.25200009,-96.000000834E-3,
,,,3.25400019,-128.0000061E-3,
,,,3.25600004,-96.000000834E-3,
,,,3.25800014,-24.00000021E-3,
,,,3.26000023,88.000006974E-3,
,,,3.26200008,144.0000087E-3,
,,,3.26400018,128.0000061E-3,
,,,3.26600027,40.00000283E-3,
,,,3.26800013,-64.000003040E-3,
,,,3.27000022,-152.00001001E-3,
,,,3.27200007,-144.0000087E-3,
,,,3.27400017,-48.00000042E-3,
,,,3.27600026,64.000003040E-3,
,,,3.27800012,128.0000061E-3,
,,,3.28000021,144.0000087E-3,
,,,3.28200006,48.00000042E-3,
,,,3.28400016,-40.00000283E-3,
,,,3.28600025,-128.0000061E-3,
,,,3.28800011,-128.0000061E-3,
,,,3.29000020,-80.000005662E-3,
,,,3.29200006,24.00000021E-3,
,,,3.29400015,104.0000021E-3,
,,,3.29600024,144.0000087E-3,
,,,3.29800010,88.000006974E-3,
,,,3.30000019,0.0,
,,,3.30200005,-104.0000021E-3,
,,,3.30400014,-160.00001132E-3,
,,,3.30600023,-128.0000061E-3,
,,,3.30800009,-16.0000008E-3,
,,,3.31000018,88.000006974E-3,
,,,3.31200027,144.0000087E-3,
,,,3.31400013,120.0000048E-3,
,,,3.31600022,32.00000152E-3,
,,,3.31800008,-72.000004351E-3,
,,,3.32000017,-152.00001001E-3,
,,,3.32200027,-144.0000087E-3,
,,,3.32400012,-48.00000042E-3,
,,,3.32600021,56.000001729E-3,
,,,3.32800007,128.0000061E-3,
,,,3.33000016,128.0000061E-3,
,,,3.33200026,64.000003040E-3,
,,,3.33400011,-24.00000021E-3,
,,,3.33600020,-136.0000074E-3,
,,,3.33800006,-152.00001001E-3,
,,,3.34000015,-80.000005662E-3,
,,,3.34200025,0.0,
,,,3.34400010,104.0000021E-3,
,,,3.34600019,136.0000074E-3,
,,,3.34800005,112.0000035E-3,
,,,3.35000014,-8.000000380E-3,
,,,3.35200024,-96.000000834E-3,
,,,3.35400009,-152.00001001E-3,
,,,3.35600019,-112.0000035E-3,
,,,3.35800028,-16.0000008E-3,
,,,3.36000013,96.000000834E-3,
,,,3.36200023,152.00001001E-3,
,,,3.36400008,136.0000074E-3,
,,,3.36600018,16.0000008E-3,
,,,3.36800027,-80.000005662E-3,
,,,3.37000012,-120.0000048E-3,
,,,3.37200022,-120.0000048E-3,
,,,3.37400007,-32.00000152E-3,
,,,3.37600017,88.000006974E-3,
,,,3.37800026,144.0000087E-3,
,,,3.38000011,168.00001264E-3,
,,,3.38200021,104.0000021E-3,
,,,3.38400006,16.0000008E-3,
,,,3.38600016,-64.000003040E-3,
,,,3.38800025,-72.000004351E-3,
,,,3.39000010,0.0,
,,,3.39200020,112.0000035E-3,
,,,3.39400005,208.00000429E-3,
,,,3.39600015,272.00001478E-3,
,,,3.39800024,192.00000167E-3,
,,,3.40000010,64.000003040E-3,
,,,3.40200019,-80.000005662E-3,
,,,3.40400004,-176.00001395E-3,
,,,3.40600014,-192.00000167E-3,
,,,3.40800023,-96.000000834E-3,
,,,3.41000009,8.000000380E-3,
,,,3.41200018,32.00000152E-3,
,,,3.41400027,24.00000021E-3,
,,,3.41600013,-72.000004351E-3,
,,,3.41800022,-176.00001395E-3,
,,,3.42000008,-208.00000429E-3,
,,,3.42200017,-216.00000560E-3,
,,,3.42400026,-120.0000048E-3,
,,,3.42600012,-16.0000008E-3,
,,,3.42800021,64.000003040E-3,
,,,3.43000007,88.000006974E-3,
,,,3.43200016,32.00000152E-3,
,,,3.43400025,-64.000003040E-3,
,,,3.43600011,-144.0000087E-3,
,,,3.43800020,-176.00001395E-3,
,,,3.44000006,-88.000006974E-3,
,,,3.44200015,16.0000008E-3,
,,,3.44400024,136.0000074E-3,
,,,3.44600010,152.00001001E-3,
,,,3.44800019,112.0000035E-3,
,,,3.45000005,8.000000380E-3,
,,,3.45200014,-96.000000834E-3,
,,,3.45400023,-128.0000061E-3,
,,,3.45600009,-72.000004351E-3,
,,,3.45800018,8.000000380E-3,
,,,3.46000028,104.0000021E-3,
,,,3.46200013,152.00001001E-3,
,,,3.46400023,152.00001001E-3,
,,,3.46600008,48.00000042E-3,
,,,3.46800017,-48.00000042E-3,
,,,3.47000027,-128.0000061E-3,
,,,3.47200012,-128.0000061E-3,
,,,3.47400022,-32.00000152E-3,
,,,3.47600007,72.000004351E-3,
,,,3.47800016,144.0000087E-3,
,,,3.48000026,160.00001132E-3,
,,,3.48200011,80.000005662E-3,
,,,3.48400021,-32.00000152E-3,
,,,3.48600006,-128.0000061E-3,
,,,3.48800015,-128.0000061E-3,
,,,3.49000025,-56.000001729E-3,
,,,3.49200010,40.00000283E-3,
,,,3.49400020,120.0000048E-3,
,,,3.49600005,152.00001001E-3,
,,,3.49800014,104.0000021E-3,
,,,3.50000024,8.000000380E-3,
,,,3.50200009,-80.000005662E-3,
,,,3.50400019,-144.0000087E-3,
,,,3.50600028,-112.0000035E-3,
,,,3.50800014,-8.000000380E-3,
,,,3.51000023,112.0000035E-3,
,,,3.51200008,144.0000087E-3,
,,,3.51400018,136.0000074E-3,
,,,3.51600027,48.00000042E-3,
,,,3.51800013,-80.000005662E-3,
,,,3.52000022,-136.0000074E-3,
,,,3.52200007,-120.0000048E-3,
,,,3.52400017,-40.00000283E-3,
,,,3.52600026,40.00000283E-3,
,,,3.52800012,144.0000087E-3,
,,,3.53000021,136.0000074E-3,
,,,3.53200006,56.000001729E-3,
,,,3.53400016,-32.00000152E-3,
,,,3.53600025,-120.0000048E-3,
,,,3.53800011,-144.0000087E-3,
,,,3.54000020,-64.000003040E-3,
,,,3.54200006,24.00000021E-3,
,,,3.54400015,120.0000048E-3,
,,,3.54600024,160.00001132E-3,
,,,3.54800010,104.0000021E-3,
,,,3.55000019,0.0,
,,,3.55200028,-104.0000021E-3,
,,,3.55400014,-144.0000087E-3,
,,,3.55600023,-104.0000021E-3,
,,,3.55800009,0.0,
,,,3.56000018,104.0000021E-3,
,,,3.56200027,136.0000074E-3,
,,,3.56400013,112.0000035E-3,
,,,3.56600022,48.00000042E-3,
,,,3.56800008,-72.000004351E-3,
,,,3.57000017,-120.0000048E-3,
,,,3.57200027,-120.0000048E-3,
,,,3.57400012,-48.00000042E-3,
,,,3.57600021,40.00000283E-3,
,,,3.57800007,136.0000074E-3,
,,,3.58000016,160.00001132E-3,
,,,3.58200026,88.000006974E-3,
,,,3.58400011,-24.00000021E-3,
,,,3.58600020,-120.0000048E-3,
,,,3.58800006,-144.0000087E-3,
,,,3.59000015,-72.000004351E-3,
,,,3.59200025,32.00000152E-3,
,,,3.59400010,136.0000074E-3,
,,,3.59600019,152.00001001E-3,
,,,3.59800029,104.0000021E-3,
,,,3.60000014,0.0,
,,,3.60200024,-96.000000834E-3,
,,,3.60400009,-120.0000048E-3,
,,,3.60600019,-96.000000834E-3,
,,,3.60800028,0.0,
,,,3.61000013,112.0000035E-3,
,,,3.61200023,136.0000074E-3,
,,,3.61400008,136.0000074E-3,
,,,3.61600018,32.00000152E-3,
,,,3.61800027,-56.000001729E-3,
,,,3.62000012,-128.0000061E-3,
,,,3.62200022,-120.0000048E-3,
,,,3.62400007,-56.000001729E-3,
,,,3.62600017,72.000004351E-3,
,,,3.62800026,144.0000087E-3,
,,,3.63000011,144.0000087E-3,
,,,3.63200021,80.000005662E-3,
,,,3.63400006,-32.00000152E-3,
,,,3.63600016,-136.0000074E-3,
,,,3.63800025,-128.0000061E-3,
,,,3.64000010,-56.000001729E-3,
,,,3.64200020,32.00000152E-3,
,,,3.64400029,120.0000048E-3,
,,,3.64600015,136.0000074E-3,
,,,3.64800024,80.000005662E-3,
,,,3.65000010,0.0,
,,,3.65200019,-104.0000021E-3,
,,,3.65400028,-136.0000074E-3,
,,,3.65600014,-120.0000048E-3,
,,,3.65800023,-24.00000021E-3,
,,,3.66000009,72.000004351E-3,
,,,3.66200018,128.0000061E-3,
,,,3.66400027,112.0000035E-3,
,,,3.66600013,32.00000152E-3,
,,,3.66800022,-88.000006974E-3,
,,,3.67000008,-160.00001132E-3,
,,,3.67200017,-144.0000087E-3,
,,,3.67400026,-64.000003040E-3,
,,,3.67600012,40.00000283E-3,
,,,3.67800021,112.0000035E-3,
,,,3.68000007,128.0000061E-3,
,,,3.68200016,40.00000283E-3,
,,,3.68400025,-64.000003040E-3,
,,,3.68600011,-144.0000087E-3,
,,,3.68800020,-168.00001264E-3,
,,,3.69000006,-88.000006974E-3,
,,,3.69200015,-8.000000380E-3,
,,,3.69400024,104.0000021E-3,
,,,3.69600010,120.0000048E-3,
,,,3.69800019,96.000000834E-3,
,,,3.70000029,-16.0000008E-3,
,,,3.70200014,-128.0000061E-3,
,,,3.70400023,-168.00001264E-3,
,,,3.70600009,-128.0000061E-3,
,,,3.70800018,-32.00000152E-3,
,,,3.71000028,88.000006974E-3,
,,,3.71200013,136.0000074E-3,
,,,3.71400023,112.0000035E-3,
,,,3.71600008,8.000000380E-3,
,,,3.71800017,-88.000006974E-3,
,,,3.72000027,-144.0000087E-3,
,,,3.72200012,-136.0000074E-3,
,,,3.72400022,-56.000001729E-3,
,,,3.72600007,48.00000042E-3,
,,,3.72800016,112.0000035E-3,
,,,3.73000026,128.0000061E-3,
,,,3.73200011,48.00000042E-3,
,,,3.73400021,-24.00000021E-3,
,,,3.73600006,-120.0000048E-3,
,,,3.73800015,-144.0000087E-3,
,,,3.74000025,-96.000000834E-3,
,,,3.74200010,8.000000380E-3,
,,,3.74400020,112.0000035E-3,
,,,3.74600029,160.00001132E-3,
,,,3.74800014,96.000000834E-3,
,,,3.75000024,8.000000380E-3,
,,,3.75200009,-112.0000035E-3,
,,,3.75400019,-152.00001001E-3,
,,,3.75600028,-112.0000035E-3,
,,,3.75800014,0.0,
,,,3.76000023,80.000005662E-3,
,,,3.76200008,144.0000087E-3,
,,,3.76400018,112.0000035E-3,
,,,3.76600027,32.00000152E-3,
,,,3.76800013,-80.000005662E-3,
,,,3.77000022,-144.0000087E-3,
,,,3.77200007,-128.0000061E-3,
,,,3.77400017,-48.00000042E-3,
,,,3.77600026,40.00000283E-3,
,,,3.77800012,120.0000048E-3,
,,,3.78000021,144.0000087E-3,
,,,3.78200006,-1.0240000,
,,,3.78400016,-1.0240000,
,,,3.78600025,-1.0240000,
,,,3.78800011,-1.0240000,
,,,3.79000020,-1.0240000,
,,,3.79200029,-1.0240000,
,,,3.79400015,-1.0240000,
,,,3.79600024,-1.0240000,
,,,3.79800010,-1.0240000,
,,,3.80000019,-1.0240000,
,,,3.80200028,-1.0240000,
,,,3.80400014,-1.0240000,
,,,3.80600023,-1.0240000,
,,,3.80800009,-1.0240000,
,,,3.81000018,-1.0240000,
,,,3.81200027,-1.0240000,
,,,3.81400013,-1.0240000,
,,,3.81600022,-1.0240000,
,,,3.81800008,-1.0240000,
,,,3.82000017,-1.0240000,
,,,3.82200027,-1.0240000,
,,,3.82400012,-1.0240000,
,,,3.82600021,-1.0240000,
,,,3.82800007,-1.0240000,
,,,3.83000016,-1.0240000,
,,,3.83200026,-1.0240000,
,,,3.83400011,-1.0240000,
,,,3.83600020,-1.0240000,
,,,3.83800030,-1.0240000,
,,,3.84000015,-1.0240000,
,,,3.84200025,-1.0240000,
,,,3.84400010,-1.0240000,
,,,3.84600019,-1.0240000,
,,,3.84800029,-1.0240000,
,,,3.85000014,-1.0240000,
,,,3.85200024,-1.0240000,
,,,3.85400009,-1.0240000,
,,,3.85600019,-1.0240000,
,,,3.85800028,-1.0240000,
,,,3.86000013,-1.0240000,
,,,3.86200023,-1.0240000,
,,,3.86400008,-1.0240000,
,,,3.86600018,-1.0240000,
,,,3.86800027,-1.0240000,
,,,3.87000012,-1.0240000,
,,,3.87200022,-1.0240000,
,,,3.87400007,-1.0240000,
,,,3.87600017,-1.0240000,
,,,3.87800026,-1.0240000,
,,,3.88000011,-1.0240000,
,,,3.88200021,-1.0240000,
,,,3.88400030,-1.0240000,
,,,3.88600016,-1.0240000,
,,,3.88800025,-1.0240000,
,,,3.89000010,-1.0240000,
,,,3.89200020,-1.0240000,
,,,3.89400029,-1.0240000,
,,,3.89600015,-1.0240000,
,,,3.89800024,-1.0240000,
,,,3.90000010,-1.0240000,
,,,3.90200019,-1.0240000,
,,,3.90400028,-1.0240000,
,,,3.90600014,-1.0240000,
,,,3.90800023,-1.0240000,
,,,3.91000009,-1.0240000,
,,,3.91200018,-1.0240000,
,,,3.91400027,-1.0240000,
,,,3.91600013,-1.0240000,
,,,3.91800022,-1.0240000,
,,,3.92000008,-1.0240000,
,,,3.92200017,-1.0240000,
,,,3.92400026,-1.0240000,
,,,3.92600012,-1.0240000,
,,,3.92800021,-1.0240000,
,,,3.93000031,-1.0240000,
,,,3.93200016,-1.0240000,
,,,3.93400025,-1.0240000,
,,,3.93600011,-1.0240000,
,,,3.93800020,-1.0240000,
,,,3.94000030,-1.0240000,
,,,3.94200015,-1.0240000,
,,,3.94400024,-1.0240000,
,,,3.94600010,-1.0240000,
,,,3.94800019,-1.0240000,
,,,3.95000029,-1.0240000,
,,,3.95200014,-1.0240000,
,,,3.95400023,-1.0240000,
,,,3.95600009,-1.0240000,
,,,3.95800018,-1.0240000,
,,,3.96000028,-1.0240000,
,,,3.96200013,-1.0240000,
,,,3.96400023,-1.0240000,
,,,3.96600008,-1.0240000,
,,,3.96800017,-1.0240000,
,,,3.97000027,-1.0240000,
,,,3.97200012,-1.0240000,
,,,3.97400022,-1.0240000,
,,,3.97600007,-1.0240000,
,,,3.97800016,-1.0240000,
,,,3.98000026,-1.0240000,
,,,3.98200011,-1.0240000,
,,,3.98400021,-1.0240000,
,,,3.98600030,-1.0240000,
,,,3.98800015,-1.0240000,
,,,3.99000025,-1.0240000,
,,,3.99200010,-1.0240000,
,,,3.99400020,-1.0240000,
,,,3.99600029,-1.0240000,
,,,3.99800014,-1.0240000,
,,,4.00000000,-1.0240000,
,,,4.00200033,-1.0240000,
,,,4.00400019,-1.0240000,
,,,4.00600004,-1.0240000,
,,,4.00800037,-1.0240000,
,,,4.01000023,-1.0240000,
,,,4.01200008,-1.0240000,
,,,4.01400042,-1.0240000,
,,,4.01600027,-1.0240000,
,,,4.01800013,-1.0240000,
,,,4.01999998,-1.0240000,
,,,4.02200031,-1.0240000,
,,,4.02400017,-1.0240000,
,,,4.02600002,-1.0240000,
,,,4.02800035,-1.0240000,
,,,4.03000021,-1.0240000,
,,,4.03200006,-1.0240000,
,,,4.03400040,-1.0240000,
,,,4.03600025,-1.0240000,
,,,4.03800011,-1.0240000,
,,,4.03999996,-1.0240000,
,,,4.04200029,-1.0240000,
,,,4.04400015,-1.0240000,
,,,4.04600000,-1.0240000,
,,,4.04800034,-1.0240000,
,,,4.05000019,-1.0240000,
,,,4.05200005,-1.0240000,
,,,4.05400038,-1.0240000,
,,,4.05600023,-1.0240000,
,,,4.05800009,-1.0240000,
,,,4.06000042,-1.0240000,
,,,4.06200027,-1.0240000,
,,,4.06400013,-1.0240000,
,,,4.06599998,-1.0240000,
,,,4.06800032,-1.0240000,
,,,4.07000017,-1.0240000,
,,,4.07200003,-1.0240000,
,,,4.07400036,-1.0240000,
,,,4.07600021,-1.0240000,
,,,4.07800007,-1.0240000,
,,,4.08000040,-1.0240000,
,,,4.08200026,-1.0240000,
,,,4.08400011,-1.0240000,
,,,4.08599997,-1.0240000,
,,,4.08800030,-1.0240000,
,,,4.09000015,-1.0240000,
,,,4.09200001,-1.0240000,
,,,4.09400034,-1.0240000,
,,,4.09600019,-1.0240000,
,,,4.09800005,-1.0240000,
,,,4.10000038,-1.0240000,
,,,4.10200024,-1.0240000,
,,,4.10400009,-1.0240000,
,,,4.10600042,-1.0240000,
,,,4.10800028,-1.0240000,
,,,4.11000013,-1.0240000,
,,,4.11199999,-1.0240000,
,,,4.11400032,-1.0240000,
,,,4.11600018,-1.0240000,
,,,4.11800003,-1.0240000,
,,,4.12000036,-1.0240000,
,,,4.12200022,-1.0240000,
,,,4.12400007,-1.0240000,
,,,4.12600040,-1.0240000,
,,,4.12800026,-1.0240000,
,,,4.13000011,-1.0240000,
,,,4.13199997,-1.0240000,
,,,4.13400030,-1.0240000,
,,,4.13600016,-1.0240000,
,,,4.13800001,-1.0240000,
,,,4.14000034,-1.0240000,
,,,4.14200020,-1.0240000,
,,,4.14400005,-1.0240000,
,,,4.14600039,-1.0240000,
,,,4.14800024,-1.0240000,
,,,4.15000010,-1.0240000,
,,,4.15200043,-1.0240000,
,,,4.15400028,-1.0240000,
,,,4.15600014,-1.0240000,
,,,4.15799999,-1.0240000,
,,,4.16000032,-1.0240000,
,,,4.16200018,-1.0240000,
,,,4.16400003,-1.0240000,
,,,4.16600037,-1.0240000,
,,,4.16800022,-1.0240000,
,,,4.17000008,-1.0240000,
,,,4.17200041,-1.0240000,
,,,4.17400026,-1.0240000,
,,,4.17600012,-1.0240000,
,,,4.17799997,-1.0240000,
,,,4.18000031,-1.0240000,
,,,4.18200016,-1.0240000,
,,,4.18400002,-1.0240000,
,,,4.18600035,-1.0240000,
,,,4.18800020,-1.0240000,
,,,4.19000006,-1.0240000,
,,,4.19200039,-1.0240000,
,,,4.19400024,-1.0240000,
,,,4.19600010,-1.0240000,
,,,4.19800043,-1.0240000,
,,,4.20000029,-1.0240000,
,,,4.20200014,-1.0240000,
,,,4.20400000,-1.0240000,
,,,4.20600033,-1.0240000,
,,,4.20800018,-1.0240000,
,,,4.21000004,-1.0240000,
,,,4.21200037,-1.0240000,
,,,4.21400023,-1.0240000,
,,,4.21600008,-1.0240000,
,,,4.21800041,-1.0240000,
,,,4.22000027,-1.0240000,
,,,4.22200012,-1.0240000,
,,,4.22399998,-1.0240000,
,,,4.22600031,-1.0240000,
,,,4.22800016,-1.0240000,
,,,4.23000002,-1.0240000,
,,,4.23200035,-1.0240000,
,,,4.23400021,-1.0240000,
,,,4.23600006,-1.0240000,
,,,4.23800039,-1.0240000,
,,,4.24000025,-1.0240000,
,,,4.24200010,-1.0240000,
,,,4.24400043,-1.0240000,
,,,4.24600029,-1.0240000,
,,,4.24800014,-1.0240000,
,,,4.25000000,-1.0240000,
,,,4.25200033,-1.0240000,
,,,4.25400019,-1.0240000,
,,,4.25600004,-1.0240000,
,,,4.25800037,-1.0240000,
,,,4.26000023,-1.0240000,
,,,4.26200008,-1.0240000,
,,,4.26400042,-1.0240000,
,,,4.26600027,-1.0240000,
,,,4.26800013,-1.0240000,
,,,4.26999998,-1.0240000,
,,,4.27200031,-1.0240000,
,,,4.27400017,-1.0240000,
,,,4.27600002,-1.0240000,
,,,4.27800035,-1.0240000,
,,,4.28000021,-1.0240000,
,,,4.28200006,88.000006974E-3,
,,,4.28400040,-16.0000008E-3,
,,,4.28600025,-112.0000035E-3,
,,,4.28800011,-120.0000048E-3,
,,,4.29000044,-72.000004351E-3,
,,,4.29200029,16.0000008E-3,
,,,4.29400015,120.0000048E-3,
,,,4.29600000,160.00001132E-3,
,,,4.29800034,112.0000035E-3,
,,,4.30000019,8.000000380E-3,
,,,4.30200005,-80.000005662E-3,
,,,4.30400038,-144.0000087E-3,
,,,4.30600023,-104.0000021E-3,
,,,4.30800009,0.0,
,,,4.31000042,88.000006974E-3,
,,,4.31200027,136.0000074E-3,
,,,4.31400013,120.0000048E-3,
,,,4.31599998,48.00000042E-3,
,,,4.31800032,-56.000001729E-3,
,,,4.32000017,-128.0000061E-3,
,,,4.32200003,-120.0000048E-3,
,,,4.32400036,-48.00000042E-3,
,,,4.32600021,40.00000283E-3,
,,,4.32800007,128.0000061E-3,
,,,4.33000040,144.0000087E-3,
,,,4.33200026,88.000006974E-3,
,,,4.33400011,-24.00000021E-3,
,,,4.33600044,-112.0000035E-3,
,,,4.33800030,-136.0000074E-3,
,,,4.34000015,-80.000005662E-3,
,,,4.34200001,8.000000380E-3,
,,,4.34400034,120.0000048E-3,
,,,4.34600019,144.0000087E-3,
,,,4.34800005,112.0000035E-3,
,,,4.35000038,8.000000380E-3,
,,,4.35200024,-80.000005662E-3,
,,,4.35400009,-128.0000061E-3,
,,,4.35600042,-96.000000834E-3,
,,,4.35800028,-16.0000008E-3,
,,,4.36000013,96.000000834E-3,
,,,4.36199999,144.0000087E-3,
,,,4.36400032,136.0000074E-3,
,,,4.36600018,56.000001729E-3,
,,,4.36800003,-32.00000152E-3,
,,,4.37000036,-128.0000061E-3,
,,,4.37200022,-120.0000048E-3,
,,,4.37400007,-56.000001729E-3,
,,,4.37600040,48.00000042E-3,
,,,4.37800026,128.0000061E-3,
,,,4.38000011,136.0000074E-3,
,,,4.38200045,80.000005662E-3,
,,,4.38400030,-8.000000380E-3,
,,,4.38600016,-104.0000021E-3,
,,,4.38800001,-128.0000061E-3,
,,,4.39000034,-80.000005662E-3,
,,,4.39200020,40.00000283E-3,
,,,4.39400005,112.0000035E-3,
,,,4.39600039,136.0000074E-3,
,,,4.39800024,96.000000834E-3,
,,,4.40000010,16.0000008E-3,
,,,4.40200043,-88.000006974E-3,
,,,4.40400028,-128.0000061E-3,
,,,4.40600014,-104.0000021E-3,
,,,4.40799999,-16.0000008E-3,
,,,4.41000032,80.000005662E-3,
,,,4.41200018,144.0000087E-3,
,,,4.41400003,136.0000074E-3,
,,,4.41600037,56.000001729E-3,
,,,4.41800022,-48.00000042E-3,
,,,4.42000008,-128.0000061E-3,
,,,4.42200041,-144.0000087E-3,
,,,4.42400026,-40.00000283E-3,
,,,4.42600012,40.00000283E-3,
,,,4.42799997,144.0000087E-3,
,,,4.43000031,152.00001001E-3,
,,,4.43200016,72.000004351E-3,
,,,4.43400002,-24.00000021E-3,
,,,4.43600035,-104.0000021E-3,
,,,4.43800020,-128.0000061E-3,
,,,4.44000006,-72.000004351E-3,
,,,4.44200039,16.0000008E-3,
,,,4.44400024,120.0000048E-3,
,,,4.44600010,136.0000074E-3,
,,,4.44800043,96.000000834E-3,
,,,4.45000029,8.000000380E-3,
,,,4.45200014,-96.000000834E-3,
,,,4.45400000,-152.00001001E-3,
,,,4.45600033,-128.0000061E-3,
,,,4.45800018,-56.000001729E-3,
,,,4.46000004,64.000003040E-3,
,,,4.46200037,112.0000035E-3,
,,,4.46400023,136.0000074E-3,
,,,4.46600008,32.00000152E-3,
,,,4.46800041,-80.000005662E-3,
,,,4.47000027,-144.0000087E-3,
,,,4.47200012,-144.0000087E-3,
,,,4.47399998,-64.000003040E-3,
,,,4.47600031,24.00000021E-3,
,,,4.47800016,104.0000021E-3,
,,,4.48000002,120.0000048E-3,
,,,4.48200035,56.000001729E-3,
,,,4.48400021,-40.00000283E-3,
,,,4.48600006,-136.0000074E-3,
,,,4.48800039,-160.00001132E-3,
,,,4.49000025,-96.000000834E-3,
,,,4.49200010,0.0,
,,,4.49400043,88.000006974E-3,
,,,4.49600029,128.0000061E-3,
,,,4.49800014,80.000005662E-3,
,,,4.50000000,-8.000000380E-3,
,,,4.50200033,-112.0000035E-3,
,,,4.50400019,-144.0000087E-3,
,,,4.50600004,-120.0000048E-3,
,,,4.50800037,-32.00000152E-3,
,,,4.51000023,72.000004351E-3,
,,,4.51200008,128.0000061E-3,
,,,4.51400042,112.0000035E-3,
,,,4.51600027,32.00000152E-3,
,,,4.51800013,-56.000001729E-3,
,,,4.51999998,-120.0000048E-3,
,,,4.52200031,-136.0000074E-3,
,,,4.52400017,-56.000001729E-3,
,,,4.52600002,32.00000152E-3,
,,,4.52800035,120.0000048E-3,
,,,4.53000021,144.0000087E-3,
,,,4.53200006,88.000006974E-3,
,,,4.53400040,-24.00000021E-3,
,,,4.53600025,-128.0000061E-3,
,,,4.53800011,-144.0000087E-3,
,,,4.54000044,-96.000000834E-3,
,,,4.54200029,-8.000000380E-3,
,,,4.54400015,112.0000035E-3,
,,,4.54600000,128.0000061E-3,
,,,4.54800034,96.000000834E-3,
,,,4.55000019,0.0,
,,,4.55200005,-96.000000834E-3,
,,,4.55400038,-136.0000074E-3,
,,,4.55600023,-104.0000021E-3,
,,,4.55800009,-24.00000021E-3,
,,,4.56000042,72.000004351E-3,
,,,4.56200027,120.0000048E-3,
,,,4.56400013,136.0000074E-3,
,,,4.56599998,40.00000283E-3,
,,,4.56800032,-64.000003040E-3,
,,,4.57000017,-128.0000061E-3,
,,,4.57200003,-136.0000074E-3,
,,,4.57400036,-56.000001729E-3,
,,,4.57600021,40.00000283E-3,
,,,4.57800007,136.0000074E-3,
,,,4.58000040,136.0000074E-3,
,,,4.58200026,72.000004351E-3,
,,,4.58400011,-8.000000380E-3,
,,,4.58600044,-112.0000035E-3,
,,,4.58800030,-136.0000074E-3,
,,,4.59000015,-64.000003040E-3,
,,,4.59200001,8.000000380E-3,
,,,4.59400034,112.0000035E-3,
,,,4.59600019,136.0000074E-3,
,,,4.59800005,96.000000834E-3,
,,,4.60000038,16.0000008E-3,
,,,4.60200024,-88.000006974E-3,
,,,4.60400009,-120.0000048E-3,
,,,4.60600042,-104.0000021E-3,
,,,4.60800028,-24.00000021E-3,
,,,4.61000013,80.000005662E-3,
,,,4.61199999,128.0000061E-3,
,,,4.61400032,128.0000061E-3,
,,,4.61600018,40.00000283E-3,
,,,4.61800003,-72.000004351E-3,
,,,4.62000036,-136.0000074E-3,
,,,4.62200022,-128.0000061E-3,
,,,4.62400007,-72.000004351E-3,
,,,4.62600040,32.00000152E-3,
,,,4.62800026,136.0000074E-3,
,,,4.63000011,136.0000074E-3,
,,,4.63200045,88.000006974E-3,
,,,4.63400030,-24.00000021E-3,
,,,4.63600016,-120.0000048E-3,
,,,4.63800001,-128.0000061E-3,
,,,4.64000034,-72.000004351E-3,
,,,4.64200020,8.000000380E-3,
,,,4.64400005,104.0000021E-3,
,,,4.64600039,136.0000074E-3,
,,,4.64800024,104.0000021E-3,
,,,4.65000010,8.000000380E-3,
,,,4.65200043,-88.000006974E-3,
,,,4.65400028,-136.0000074E-3,
,,,4.65600014,-112.0000035E-3,
,,,4.65799999,-40.00000283E-3,
,,,4.66000032,80.000005662E-3,
,,,4.66200018,152.00001001E-3,
,,,4.66400003,120.0000048E-3,
,,,4.66600037,40.00000283E-3,
,,,4.66800022,-72.000004351E-3,
,,,4.67000008,-136.0000074E-3,
,,,4.67200041,-128.0000061E-3,
,,,4.67400026,-48.00000042E-3,
,,,4.67600012,40.00000283E-3,
,,,4.67800045,120.0000048E-3,
,,,4.68000031,136.0000074E-3,
,,,4.68200016,72.000004351E-3,
,,,4.68400002,-24.00000021E-3,
,,,4.68600035,-112.0000035E-3,
,,,4.68800020,-136.0000074E-3,
,,,4.69000006,-80.000005662E-3,
,,,4.69200039,24.00000021E-3,
,,,4.69400024,112.0000035E-3,
,,,4.69600010,136.0000074E-3,
,,,4.69800043,112.0000035E-3,
,,,4.70000029,16.0000008E-3,
,,,4.70200014,-96.000000834E-3,
,,,4.70400000,-128.0000061E-3,
,,,4.70600033,-112.0000035E-3,
,,,4.70800018,-32.00000152E-3,
,,,4.71000004,80.000005662E-3,
,,,4.71200037,128.0000061E-3,
,,,4.71400023,120.0000048E-3,
,,,4.71600008,32.00000152E-3,
,,,4.71800041,-64.000003040E-3,
,,,4.72000027,-136.0000074E-3,
,,,4.72200012,-128.0000061E-3,
,,,4.72400045,-72.000004351E-3,
,,,4.72600031,40.00000283E-3,
,,,4.72800016,120.0000048E-3,
,,,4.73000002,144.0000087E-3,
,,,4.73200035,64.000003040E-3,
,,,4.73400021,-32.00000152E-3,
,,,4.73600006,-104.0000021E-3,
,,,4.73800039,-136.0000074E-3,
,,,4.74000025,-88.000006974E-3,
,,,4.74200010,8.000000380E-3,
,,,4.74400043,112.0000035E-3,
,,,4.74600029,152.00001001E-3,
,,,4.74800014,104.0000021E-3,
,,,4.75000000,16.0000008E-3,
,,,4.75200033,-72.000004351E-3,
,,,4.75400019,-128.0000061E-3,
,,,4.75600004,-112.0000035E-3,
,,,4.75800037,-32.00000152E-3,
,,,4.76000023,64.000003040E-3,
,,,4.76200008,128.0000061E-3,
,,,4.76400042,120.0000048E-3,
,,,4.76600027,48.00000042E-3,
,,,4.76800013,-56.000001729E-3,
,,,4.77000046,-128.0000061E-3,
,,,4.77200031,-128.0000061E-3,
,,,4.77400017,-56.000001729E-3,
,,,4.77600002,40.00000283E-3,
,,,4.77800035,120.0000048E-3,
,,,4.78000021,144.0000087E-3,
,,,4.78200006,64.000003040E-3,
,,,4.78400040,-24.00000021E-3,
,,,4.78600025,-120.0000048E-3,
,,,4.78800011,-144.0000087E-3,
,,,4.79000044,-96.000000834E-3,
,,,4.79200029,0.0,
,,,4.79400015,104.0000021E-3,
,,,4.79600000,128.0000061E-3,
,,,4.79800034,104.0000021E-3,
,,,4.80000019,24.00000021E-3,
,,,4.80200005,-88.000006974E-3,
,,,4.80400038,-144.0000087E-3,
,,,4.80600023,-120.0000048E-3,
,,,4.80800009,-32.00000152E-3,
,,,4.81000042,72.000004351E-3,
,,,4.81200027,136.0000074E-3,
,,,4.81400013,128.0000061E-3,
,,,4.81600046,40.00000283E-3,
,,,4.81800032,-56.000001729E-3,
,,,4.82000017,-128.0000061E-3,
,,,4.82200003,-128.0000061E-3,
,,,4.82400036,-48.00000042E-3,
,,,4.82600021,32.00000152E-3,
,,,4.82800007,120.0000048E-3,
,,,4.83000040,136.0000074E-3,
,,,4.83200026,72.000004351E-3,
,,,4.83400011,-32.00000152E-3,
,,,4.83600044,-112.0000035E-3,
,,,4.83800030,-144.0000087E-3,
,,,4.84000015,-80.000005662E-3,
,,,4.84200001,8.000000380E-3,
,,,4.84400034,88.000006974E-3,
,,,4.84600019,128.0000061E-3,
,,,4.84800005,120.0000048E-3,
,,,4.85000038,24.00000021E-3,
,,,4.85200024,-72.000004351E-3,
,,,4.85400009,-120.0000048E-3,
,,,4.85600042,-104.0000021E-3,
,,,4.85800028,-24.00000021E-3,
,,,4.86000013,88.000006974E-3,
,,,4.86200047,136.0000074E-3,
,,,4.86400032,128.0000061E-3,
,,,4.86600018,56.000001729E-3,
,,,4.86800003,-48.00000042E-3,
,,,4.87000036,-120.0000048E-3,
,,,4.87200022,-128.0000061E-3,
,,,4.87400007,-56.000001729E-3,
,,,4.87600040,40.00000283E-3,
,,,4.87800026,120.0000048E-3,
,,,4.88000011,120.0000048E-3,
,,,4.88200045,72.000004351E-3,
,,,4.88400030,-16.0000008E-3,
,,,4.88600016,-120.0000048E-3,
,,,4.88800001,-144.0000087E-3,
,,,4.89000034,-88.000006974E-3,
,,,4.89200020,-16.0000008E-3,
,,,4.89400005,88.000006974E-3,
,,,4.89600039,136.0000074E-3,
,,,4.89800024,104.0000021E-3,
,,,4.90000010,8.000000380E-3,
,,,4.90200043,-88.000006974E-3,
,,,4.90400028,-144.0000087E-3,
,,,4.90600014,-120.0000048E-3,
,,,4.90800047,-32.00000152E-3,
,,,4.91000032,80.000005662E-3,
,,,4.91200018,128.0000061E-3,
,,,4.91400003,120.0000048E-3,
,,,4.91600037,40.00000283E-3,
,,,4.91800022,-64.000003040E-3,
,,,4.92000008,-128.0000061E-3,
,,,4.92200041,-144.0000087E-3,
,,,4.92400026,-64.000003040E-3,
,,,4.92600012,24.00000021E-3,
,,,4.92800045,120.0000048E-3,
,,,4.93000031,128.0000061E-3,
,,,4.93200016,72.000004351E-3,
,,,4.93400002,-16.0000008E-3,
,,,4.93600035,-120.0000048E-3,
,,,4.93800020,-152.00001001E-3,
,,,4.94000006,-96.000000834E-3,
,,,4.94200039,-8.000000380E-3,
,,,4.94400024,104.0000021E-3,
,,,4.94600010,128.0000061E-3,
,,,4.94800043,104.0000021E-3,
,,,4.95000029,8.000000380E-3,
,,,4.95200014,-96.000000834E-3,
,,,4.95400047,-120.0000048E-3,
,,,4.95600033,-112.0000035E-3,
,,,4.95800018,-24.00000021E-3,
,,,4.96000004,64.000003040E-3,
,,,4.96200037,136.0000074E-3,
,,,4.96400023,120.0000048E-3,
,,,4.96600008,40.00000283E-3,
,,,4.96800041,-48.00000042E-3,
,,,4.97000027,-128.0000061E-3,
,,,4.97200012,-136.0000074E-3,
,,,4.97400045,-64.000003040E-3,
,,,4.97600031,32.00000152E-3,
,,,4.97800016,128.0000061E-3,
,,,4.98000002,144.0000087E-3,
,,,4.98200035,96.000000834E-3,
,,,4.98400021,16.0000008E-3,
,,,4.98600006,-96.000000834E-3,
,,,4.98800039,-104.0000021E-3,
,,,4.99000025,-56.000001729E-3,
,,,4.99200010,48.00000042E-3,
,,,4.99400043,160.00001132E-3,
,,,4.99600029,208.00000429E-3,
,,,4.99800014,184.00001526E-3,
